4497.60101	0.03698
4495.67236	0.03698
4493.74372	0.03698
4491.81507	0.03698
4489.88643	0.03698
4487.95778	0.02712
4486.02914	0.01708
4484.10049	0.01032
4482.17185	0.00960
4480.24320	0.01632
4478.31455	0.02700
4476.38591	0.03822
4474.45726	0.04757
4472.52862	0.05321
4470.59997	0.05370
4468.67133	0.04842
4466.74268	0.03778
4464.81404	0.02316
4462.88539	0.00733
4460.95675	-0.00569
4459.02810	-0.01248
4457.09946	-0.01251
4455.17081	-0.00790
4453.24216	-0.00088
4451.31352	0.00787
4449.38487	0.01853
4447.45623	0.03074
4445.52758	0.04306
4443.59894	0.05323
4441.67029	0.05860
4439.74165	0.05759
4437.81300	0.05150
4435.88436	0.04454
4433.95571	0.04113
4432.02707	0.04307
4430.09842	0.04878
4428.16978	0.05467
4426.24113	0.05732
4424.31248	0.05476
4422.38384	0.04708
4420.45519	0.03622
4418.52655	0.02477
4416.59790	0.01483
4414.66926	0.00774
4412.74061	0.00440
4410.81197	0.00520
4408.88332	0.00952
4406.95468	0.01609
4405.02603	0.02360
4403.09739	0.03065
4401.16874	0.03543
4399.24009	0.03653
4397.31145	0.03399
4395.38280	0.02904
4393.45416	0.02329
4391.52551	0.01877
4389.59687	0.01794
4387.66822	0.02202
4385.73958	0.02956
4383.81093	0.03763
4381.88229	0.04398
4379.95364	0.04727
4378.02500	0.04643
4376.09635	0.04130
4374.16770	0.03327
4372.23906	0.02428
4370.31041	0.01616
4368.38177	0.01108
4366.45312	0.01128
4364.52448	0.01729
4362.59583	0.02643
4360.66719	0.03395
4358.73854	0.03563
4356.80990	0.02982
4354.88125	0.01859
4352.95261	0.00730
4351.02396	0.00225
4349.09531	0.00686
4347.16667	0.01911
4345.23802	0.03277
4343.30938	0.04159
4341.38073	0.04228
4339.45209	0.03524
4337.52344	0.02422
4335.59480	0.01456
4333.66615	0.00995
4331.73751	0.01019
4329.80886	0.01244
4327.88022	0.01410
4325.95157	0.01397
4324.02292	0.01205
4322.09428	0.00954
4320.16563	0.00820
4318.23699	0.00902
4316.30834	0.01154
4314.37970	0.01489
4312.45105	0.01881
4310.52241	0.02341
4308.59376	0.02852
4306.66512	0.03351
4304.73647	0.03758
4302.80783	0.04000
4300.87918	0.04033
4298.95054	0.03869
4297.02189	0.03562
4295.09324	0.03114
4293.16460	0.02449
4291.23595	0.01536
4289.30731	0.00491
4287.37866	-0.00480
4285.45002	-0.01177
4283.52137	-0.01421
4281.59273	-0.01131
4279.66408	-0.00443
4277.73544	0.00361
4275.80679	0.01061
4273.87815	0.01517
4271.94950	0.01588
4270.02085	0.01245
4268.09221	0.00701
4266.16356	0.00288
4264.23492	0.00231
4262.30627	0.00597
4260.37763	0.01295
4258.44898	0.02016
4256.52034	0.02362
4254.59169	0.02144
4252.66305	0.01524
4250.73440	0.00900
4248.80576	0.00669
4246.87711	0.01012
4244.94846	0.01822
4243.01982	0.02798
4241.09117	0.03618
4239.16253	0.04076
4237.23388	0.04134
4235.30524	0.03909
4233.37659	0.03523
4231.44795	0.02966
4229.51930	0.02179
4227.59066	0.01228
4225.66201	0.00324
4223.73337	-0.00269
4221.80472	-0.00335
4219.87607	0.00195
4217.94743	0.01162
4216.01878	0.02226
4214.09014	0.03068
4212.16149	0.03564
4210.23285	0.03770
4208.30420	0.03798
4206.37556	0.03702
4204.44691	0.03440
4202.51827	0.02953
4200.58962	0.02263
4198.66098	0.01521
4196.73233	0.00953
4194.80368	0.00728
4192.87504	0.00865
4190.94639	0.01237
4189.01775	0.01665
4187.08910	0.02036
4185.16046	0.02349
4183.23181	0.02637
4181.30317	0.02865
4179.37452	0.02922
4177.44588	0.02740
4175.51723	0.02378
4173.58859	0.01992
4171.65994	0.01758
4169.73130	0.01820
4167.80265	0.02195
4165.87400	0.02719
4163.94536	0.03139
4162.01671	0.03270
4160.08807	0.03069
4158.15942	0.02622
4156.23078	0.02102
4154.30213	0.01709
4152.37349	0.01581
4150.44484	0.01739
4148.51620	0.02084
4146.58755	0.02451
4144.65891	0.02711
4142.73026	0.02851
4140.80161	0.02938
4138.87297	0.03026
4136.94432	0.03122
4135.01568	0.03210
4133.08703	0.03239
4131.15839	0.03143
4129.22974	0.02898
4127.30110	0.02529
4125.37245	0.02043
4123.44381	0.01426
4121.51516	0.00705
4119.58652	-0.00002
4117.65787	-0.00550
4115.72922	-0.00808
4113.80058	-0.00691
4111.87193	-0.00198
4109.94329	0.00577
4108.01464	0.01483
4106.08600	0.02363
4104.15735	0.03071
4102.22871	0.03497
4100.30006	0.03594
4098.37142	0.03410
4096.44277	0.03083
4094.51413	0.02779
4092.58548	0.02601
4090.65683	0.02540
4088.72819	0.02486
4086.79954	0.02282
4084.87090	0.01814
4082.94225	0.01122
4081.01361	0.00414
4079.08496	-0.00077
4077.15632	-0.00251
4075.22767	-0.00140
4073.29903	0.00171
4071.37038	0.00544
4069.44174	0.00830
4067.51309	0.00978
4065.58444	0.01056
4063.65580	0.01107
4061.72715	0.01082
4059.79851	0.00970
4057.86986	0.00859
4055.94122	0.00801
4054.01257	0.00766
4052.08393	0.00746
4050.15528	0.00782
4048.22664	0.00883
4046.29799	0.01045
4044.36935	0.01314
4042.44070	0.01721
4040.51206	0.02154
4038.58341	0.02402
4036.65476	0.02316
4034.72612	0.01881
4032.79747	0.01233
4030.86883	0.00644
4028.94018	0.00425
4027.01154	0.00735
4025.08289	0.01477
4023.15425	0.02364
4021.22560	0.03071
4019.29696	0.03387
4017.36831	0.03257
4015.43967	0.02755
4013.51102	0.02030
4011.58237	0.01265
4009.65373	0.00616
4007.72508	0.00209
4005.79644	0.00158
4003.86779	0.00529
4001.93915	0.01232
4000.01050	0.01958
3998.08186	0.02402
3996.15321	0.02413
3994.22457	0.02026
3992.29592	0.01443
3990.36728	0.00946
3988.43863	0.00764
3986.50998	0.00946
3984.58134	0.01360
3982.65269	0.01799
3980.72405	0.02081
3978.79540	0.02120
3976.86676	0.01939
3974.93811	0.01658
3973.00947	0.01435
3971.08082	0.01407
3969.15218	0.01613
3967.22353	0.01966
3965.29489	0.02289
3963.36624	0.02396
3961.43759	0.02177
3959.50895	0.01656
3957.58030	0.00996
3955.65166	0.00434
3953.72301	0.00186
3951.79437	0.00365
3949.86572	0.00942
3947.93708	0.01774
3946.00843	0.02665
3944.07979	0.03434
3942.15114	0.03955
3940.22250	0.04160
3938.29385	0.04035
3936.36521	0.03615
3934.43656	0.02999
3932.50791	0.02343
3930.57927	0.01834
3928.65062	0.01634
3926.72198	0.01808
3924.79333	0.02284
3922.86469	0.02865
3920.93604	0.03298
3919.00740	0.03381
3917.07875	0.03048
3915.15011	0.02393
3913.22146	0.01625
3911.29282	0.00980
3909.36417	0.00634
3907.43552	0.00649
3905.50688	0.00965
3903.57823	0.01438
3901.64959	0.01904
3899.72094	0.02227
3897.79230	0.02317
3895.86365	0.02131
3893.93501	0.01689
3892.00636	0.01093
3890.07772	0.00518
3888.14907	0.00164
3886.22043	0.00194
3884.29178	0.00670
3882.36313	0.01498
3880.43449	0.02437
3878.50584	0.03197
3876.57720	0.03565
3874.64855	0.03473
3872.71991	0.03015
3870.79126	0.02388
3868.86262	0.01799
3866.93397	0.01354
3865.00533	0.01015
3863.07668	0.00651
3861.14804	0.00145
3859.21939	-0.00508
3857.29074	-0.01173
3855.36210	-0.01620
3853.43345	-0.01633
3851.50481	-0.01143
3849.57616	-0.00279
3847.64752	0.00695
3845.71887	0.01506
3843.79023	0.01981
3841.86158	0.02101
3839.93294	0.01993
3838.00429	0.01857
3836.07565	0.01879
3834.14700	0.02148
3832.21835	0.02633
3830.28971	0.03197
3828.36106	0.03642
3826.43242	0.03787
3824.50377	0.03558
3822.57513	0.03035
3820.64648	0.02419
3818.71784	0.01934
3816.78919	0.01740
3814.86055	0.01877
3812.93190	0.02265
3811.00326	0.02763
3809.07461	0.03239
3807.14597	0.03604
3805.21732	0.03807
3803.28867	0.03814
3801.36003	0.03616
3799.43138	0.03250
3797.50274	0.02812
3795.57409	0.02435
3793.64545	0.02232
3791.71680	0.02247
3789.78816	0.02438
3787.85951	0.02698
3785.93087	0.02929
3784.00222	0.03088
3782.07358	0.03188
3780.14493	0.03266
3778.21628	0.03343
3776.28764	0.03417
3774.35899	0.03479
3772.43035	0.03548
3770.50170	0.03678
3768.57306	0.03944
3766.64441	0.04379
3764.71577	0.04934
3762.78712	0.05469
3760.85848	0.05778
3758.92983	0.05664
3757.00119	0.05030
3755.07254	0.03942
3753.14389	0.02625
3751.21525	0.01404
3749.28660	0.00585
3747.35796	0.00322
3745.42931	0.00548
3743.50067	0.01025
3741.57202	0.01469
3739.64338	0.01675
3737.71473	0.01604
3735.78609	0.01381
3733.85744	0.01215
3731.92880	0.01269
3730.00015	0.01574
3728.07150	0.02027
3726.14286	0.02469
3724.21421	0.02775
3722.28557	0.02913
3720.35692	0.02949
3718.42828	0.03000
3716.49963	0.03158
3714.57099	0.03428
3712.64234	0.03737
3710.71370	0.03998
3708.78505	0.04187
3706.85641	0.04363
3704.92776	0.04639
3702.99911	0.05112
3701.07047	0.05786
3699.14182	0.06541
3697.21318	0.07179
3695.28453	0.07510
3693.35589	0.07436
3691.42724	0.06986
3689.49860	0.06316
3687.56995	0.05641
3685.64131	0.05153
3683.71266	0.04959
3681.78402	0.05075
3679.85537	0.05466
3677.92673	0.06086
3675.99808	0.06904
3674.06943	0.07905
3672.14079	0.09080
3670.21214	0.10412
3668.28350	0.11850
3666.35485	0.13324
3664.42621	0.14770
3662.49756	0.16144
3660.56892	0.17391
3658.64027	0.18452
3656.71163	0.19297
3654.78298	0.19955
3652.85434	0.20516
3650.92569	0.21118
3648.99704	0.21904
3647.06840	0.22961
3645.13975	0.24280
3643.21111	0.25775
3641.28246	0.27339
3639.35382	0.28899
3637.42517	0.30426
3635.49653	0.31925
3633.56788	0.33407
3631.63924	0.34866
3629.71059	0.36286
3627.78195	0.37658
3625.85330	0.39014
3623.92465	0.40428
3621.99601	0.41992
3620.06736	0.43768
3618.13872	0.45757
3616.21007	0.47895
3614.28143	0.50061
3612.35278	0.52104
3610.42414	0.53886
3608.49549	0.55348
3606.56685	0.56530
3604.63820	0.57558
3602.70956	0.58596
3600.78091	0.59787
3598.85226	0.61191
3596.92362	0.62771
3594.99497	0.64451
3593.06633	0.66180
3591.13768	0.67961
3589.20904	0.69843
3587.28039	0.71864
3585.35175	0.73998
3583.42310	0.76135
3581.49446	0.78132
3579.56581	0.79897
3577.63717	0.81465
3575.70852	0.82992
3573.77988	0.84677
3571.85123	0.86644
3569.92258	0.88861
3567.99394	0.91146
3566.06529	0.93260
3564.13665	0.95038
3562.20800	0.96480
3560.27936	0.97739
3558.35071	0.99018
3556.42207	1.00442
3554.49342	1.02001
3552.56478	1.03580
3550.63613	1.05049
3548.70749	1.06355
3546.77884	1.07555
3544.85019	1.08785
3542.92155	1.10195
3540.99290	1.11875
3539.06426	1.13818
3537.13561	1.15931
3535.20697	1.18062
3533.27832	1.20047
3531.34968	1.21771
3529.42103	1.23218
3527.49239	1.24488
3525.56374	1.25750
3523.63510	1.27177
3521.70645	1.28862
3519.77780	1.30784
3517.84916	1.32808
3515.92051	1.34746
3513.99187	1.36436
3512.06322	1.37806
3510.13458	1.38904
3508.20593	1.39877
3506.27729	1.40920
3504.34864	1.42203
3502.42000	1.43812
3500.49135	1.45707
3498.56271	1.47740
3496.63406	1.49708
3494.70541	1.51439
3492.77677	1.52849
3490.84812	1.53941
3488.91948	1.54797
3486.99083	1.55549
3485.06219	1.56350
3483.13354	1.57333
3481.20490	1.58579
3479.27625	1.60095
3477.34761	1.61803
3475.41896	1.63558
3473.49032	1.65209
3471.56167	1.66665
3469.63302	1.67927
3467.70438	1.69061
3465.77573	1.70146
3463.84709	1.71227
3461.91844	1.72317
3459.98980	1.73416
3458.06115	1.74542
3456.13251	1.75732
3454.20386	1.77013
3452.27522	1.78365
3450.34657	1.79700
3448.41793	1.80897
3446.48928	1.81867
3444.56064	1.82596
3442.63199	1.83152
3440.70334	1.83650
3438.77470	1.84200
3436.84605	1.84855
3434.91741	1.85601
3432.98876	1.86381
3431.06012	1.87135
3429.13147	1.87829
3427.20283	1.88471
3425.27418	1.89098
3423.34554	1.89752
3421.41689	1.90462
3419.48825	1.91234
3417.55960	1.92052
3415.63095	1.92874
3413.70231	1.93641
3411.77366	1.94297
3409.84502	1.94813
3407.91637	1.95186
3405.98773	1.95434
3404.05908	1.95582
3402.13044	1.95655
3400.20179	1.95674
3398.27315	1.95672
3396.34450	1.95717
3394.41586	1.95900
3392.48721	1.96299
3390.55856	1.96923
3388.62992	1.97677
3386.70127	1.98385
3384.77263	1.98860
3382.84398	1.98994
3380.91534	1.98802
3378.98669	1.98417
3377.05805	1.98026
3375.12940	1.97790
3373.20076	1.97777
3371.27211	1.97950
3369.34347	1.98202
3367.41482	1.98425
3365.48617	1.98549
3363.55753	1.98557
3361.62888	1.98471
3359.70024	1.98331
3357.77159	1.98166
3355.84295	1.97980
3353.91430	1.97751
3351.98566	1.97444
3350.05701	1.97031
3348.12837	1.96502
3346.19972	1.95876
3344.27108	1.95203
3342.34243	1.94551
3340.41378	1.93982
3338.48514	1.93535
3336.55649	1.93220
3334.62785	1.93047
3332.69920	1.93042
3330.77056	1.93243
3328.84191	1.93671
3326.91327	1.94282
3324.98462	1.94956
3323.05598	1.95536
3321.12733	1.95894
3319.19869	1.95977
3317.27004	1.95828
3315.34140	1.95547
3313.41275	1.95230
3311.48410	1.94914
3309.55546	1.94574
3307.62681	1.94173
3305.69817	1.93704
3303.76952	1.93197
3301.84088	1.92720
3299.91223	1.92362
3297.98359	1.92193
3296.05494	1.92222
3294.12630	1.92386
3292.19765	1.92581
3290.26901	1.92701
3288.34036	1.92673
3286.41171	1.92486
3284.48307	1.92204
3282.55442	1.91911
3280.62578	1.91647
3278.69713	1.91379
3276.76849	1.91009
3274.83984	1.90417
3272.91120	1.89514
3270.98255	1.88300
3269.05391	1.86887
3267.12526	1.85463
3265.19662	1.84218
3263.26797	1.83287
3261.33932	1.82704
3259.41068	1.82384
3257.48203	1.82161
3255.55339	1.81855
3253.62474	1.81335
3251.69610	1.80556
3249.76745	1.79574
3247.83881	1.78513
3245.91016	1.77516
3243.98152	1.76696
3242.05287	1.76095
3240.12423	1.75683
3238.19558	1.75378
3236.26693	1.75092
3234.33829	1.74761
3232.40964	1.74343
3230.48100	1.73809
3228.55235	1.73129
3226.62371	1.72282
3224.69506	1.71268
3222.76642	1.70131
3220.83777	1.68951
3218.90913	1.67812
3216.98048	1.66753
3215.05184	1.65755
3213.12319	1.64764
3211.19455	1.63731
3209.26590	1.62651
3207.33725	1.61568
3205.40861	1.60546
3203.47996	1.59625
3201.55132	1.58800
3199.62267	1.58026
3197.69403	1.57253
3195.76538	1.56447
3193.83674	1.55614
3191.90809	1.54789
3189.97945	1.54012
3188.05080	1.53297
3186.12216	1.52637
3184.19351	1.52011
3182.26486	1.51389
3180.33622	1.50740
3178.40757	1.50027
3176.47893	1.49207
3174.55028	1.48241
3172.62164	1.47128
3170.69299	1.45921
3168.76435	1.44723
3166.83570	1.43637
3164.90706	1.42716
3162.97841	1.41938
3161.04977	1.41226
3159.12112	1.40506
3157.19247	1.39762
3155.26383	1.39037
3153.33518	1.38378
3151.40654	1.37785
3149.47789	1.37200
3147.54925	1.36526
3145.62060	1.35690
3143.69196	1.34685
3141.76331	1.33577
3139.83467	1.32467
3137.90602	1.31439
3135.97738	1.30528
3134.04873	1.29729
3132.12008	1.29015
3130.19144	1.28360
3128.26279	1.27746
3126.33415	1.27161
3124.40550	1.26596
3122.47686	1.26036
3120.54821	1.25457
3118.61957	1.24834
3116.69092	1.24149
3114.76228	1.23404
3112.83363	1.22627
3110.90499	1.21867
3108.97634	1.21179
3107.04769	1.20607
3105.11905	1.20167
3103.19040	1.19836
3101.26176	1.19555
3099.33311	1.19248
3097.40447	1.18850
3095.47582	1.18329
3093.54718	1.17690
3091.61853	1.16977
3089.68989	1.16258
3087.76124	1.15583
3085.83260	1.14973
3083.90395	1.14409
3081.97531	1.13847
3080.04666	1.13241
3078.11801	1.12568
3076.18937	1.11845
3074.26072	1.11124
3072.33208	1.10468
3070.40343	1.09920
3068.47479	1.09485
3066.54614	1.09122
3064.61750	1.08757
3062.68885	1.08304
3060.76021	1.07697
3058.83156	1.06910
3056.90292	1.05964
3054.97427	1.04916
3053.04562	1.03846
3051.11698	1.02839
3049.18833	1.01953
3047.25969	1.01197
3045.33104	1.00539
3043.40240	0.99923
3041.47375	0.99291
3039.54511	0.98598
3037.61646	0.97836
3035.68782	0.97038
3033.75917	0.96257
3031.83053	0.95546
3029.90188	0.94947
3027.97323	0.94484
3026.04459	0.94150
3024.11594	0.93916
3022.18730	0.93736
3020.25865	0.93568
3018.33001	0.93377
3016.40136	0.93145
3014.47272	0.92878
3012.54407	0.92590
3010.61543	0.92293
3008.68678	0.91993
3006.75814	0.91681
3004.82949	0.91330
3002.90084	0.90913
3000.97220	0.90432
2999.04355	0.89929
2997.11491	0.89460
2995.18626	0.89070
2993.25762	0.88773
2991.32897	0.88552
2989.40033	0.88401
2987.47168	0.88360
2985.54304	0.88507
2983.61439	0.88908
2981.68575	0.89583
2979.75710	0.90480
2977.82845	0.91459
2975.89981	0.92339
2973.97116	0.93016
2972.04252	0.93501
2970.11387	0.93850
2968.18523	0.94108
2966.25658	0.94318
2964.32794	0.94505
2962.39929	0.94647
2960.47065	0.94702
2958.54200	0.94678
2956.61336	0.94624
2954.68471	0.94582
2952.75607	0.94562
2950.82742	0.94563
2948.89877	0.94591
2946.97013	0.94677
2945.04148	0.94875
2943.11284	0.95263
2941.18419	0.95910
2939.25555	0.96822
2937.32690	0.97928
2935.39826	0.99118
2933.46961	1.00306
2931.54097	1.01427
2929.61232	1.02392
2927.68368	1.03082
2925.75503	1.03365
2923.82638	1.03076
2921.89774	1.02071
2919.96909	1.00330
2918.04045	0.97995
2916.11180	0.95304
2914.18316	0.92517
2912.25451	0.89901
2910.32587	0.87686
2908.39722	0.85957
2906.46858	0.84645
2904.53993	0.83604
2902.61129	0.82676
2900.68264	0.81726
2898.75399	0.80709
2896.82535	0.79706
2894.89670	0.78840
2892.96806	0.78167
2891.03941	0.77661
2889.11077	0.77255
2887.18212	0.76869
2885.25348	0.76454
2883.32483	0.76038
2881.39619	0.75700
2879.46754	0.75485
2877.53890	0.75368
2875.61025	0.75287
2873.68160	0.75172
2871.75296	0.74963
2869.82431	0.74661
2867.89567	0.74366
2865.96702	0.74215
2864.03838	0.74308
2862.10973	0.74663
2860.18109	0.75189
2858.25244	0.75662
2856.32380	0.75802
2854.39515	0.75406
2852.46651	0.74439
2850.53786	0.73022
2848.60922	0.71386
2846.68057	0.69789
2844.75192	0.68401
2842.82328	0.67239
2840.89463	0.66214
2838.96599	0.65235
2837.03734	0.64262
2835.10870	0.63307
2833.18005	0.62419
2831.25141	0.61659
2829.32276	0.61043
2827.39412	0.60528
2825.46547	0.60059
2823.53683	0.59623
2821.60818	0.59238
2819.67953	0.58921
2817.75089	0.58672
2815.82224	0.58463
2813.89360	0.58243
2811.96495	0.57949
2810.03631	0.57556
2808.10766	0.57090
2806.17902	0.56611
2804.25037	0.56187
2802.32173	0.55872
2800.39308	0.55675
2798.46444	0.55551
2796.53579	0.55414
2794.60714	0.55170
2792.67850	0.54750
2790.74985	0.54162
2788.82121	0.53492
2786.89256	0.52858
2784.96392	0.52332
2783.03527	0.51929
2781.10663	0.51636
2779.17798	0.51433
2777.24934	0.51324
2775.32069	0.51342
2773.39205	0.51509
2771.46340	0.51774
2769.53475	0.52003
2767.60611	0.52062
2765.67746	0.51887
2763.74882	0.51498
2761.82017	0.50963
2759.89153	0.50369
2757.96288	0.49795
2756.03424	0.49285
2754.10559	0.48837
2752.17695	0.48457
2750.24830	0.48185
2748.31966	0.48062
2746.39101	0.48076
2744.46236	0.48180
2742.53372	0.48330
2740.60507	0.48457
2738.67643	0.48459
2736.74778	0.48262
2734.81914	0.47878
2732.89049	0.47377
2730.96185	0.46840
2729.03320	0.46339
2727.10456	0.45941
2725.17591	0.45671
2723.24727	0.45503
2721.31862	0.45404
2719.38998	0.45356
2717.46133	0.45333
2715.53268	0.45289
2713.60404	0.45200
2711.67539	0.45085
2709.74675	0.44985
2707.81810	0.44934
2705.88946	0.44948
2703.96081	0.45015
2702.03217	0.45083
2700.10352	0.45080
2698.17488	0.44967
2696.24623	0.44756
2694.31759	0.44460
2692.38894	0.44072
2690.46029	0.43590
2688.53165	0.43043
2686.60300	0.42483
2684.67436	0.41981
2682.74571	0.41627
2680.81707	0.41492
2678.88842	0.41579
2676.95978	0.41811
2675.03113	0.42075
2673.10249	0.42252
2671.17384	0.42249
2669.24520	0.42035
2667.31655	0.41676
2665.38790	0.41292
2663.45926	0.40995
2661.53061	0.40847
2659.60197	0.40852
2657.67332	0.40933
2655.74468	0.40956
2653.81603	0.40807
2651.88739	0.40449
2649.95874	0.39925
2648.03010	0.39318
2646.10145	0.38745
2644.17281	0.38330
2642.24416	0.38149
2640.31551	0.38187
2638.38687	0.38356
2636.45822	0.38529
2634.52958	0.38574
2632.60093	0.38415
2630.67229	0.38083
2628.74364	0.37713
2626.81500	0.37479
2624.88635	0.37489
2622.95771	0.37710
2621.02906	0.37959
2619.10042	0.37996
2617.17177	0.37683
2615.24312	0.37072
2613.31448	0.36391
2611.38583	0.35934
2609.45719	0.35910
2607.52854	0.36298
2605.59990	0.36834
2603.67125	0.37173
2601.74261	0.37092
2599.81396	0.36570
2597.88532	0.35752
2595.95667	0.34890
2594.02803	0.34234
2592.09938	0.33883
2590.17074	0.33729
2588.24209	0.33580
2586.31344	0.33330
2584.38480	0.32984
2582.45615	0.32631
2580.52751	0.32431
2578.59886	0.32571
2576.67022	0.33124
2574.74157	0.33967
2572.81293	0.34845
2570.88428	0.35515
2568.95564	0.35838
2567.02699	0.35782
2565.09835	0.35401
2563.16970	0.34821
2561.24105	0.34185
2559.31241	0.33599
2557.38376	0.33126
2555.45512	0.32826
2553.52647	0.32781
2551.59783	0.33051
2549.66918	0.33599
2547.74054	0.34279
2545.81189	0.34886
2543.88325	0.35254
2541.95460	0.35318
2540.02596	0.35077
2538.09731	0.34579
2536.16866	0.33955
2534.24002	0.33397
2532.31137	0.33050
2530.38273	0.32974
2528.45408	0.33194
2526.52544	0.33664
2524.59679	0.34163
2522.66815	0.34408
2520.73950	0.34266
2518.81086	0.33800
2516.88221	0.33190
2514.95357	0.32673
2513.02492	0.32495
2511.09627	0.32759
2509.16763	0.33342
2507.23898	0.34006
2505.31034	0.34522
2503.38169	0.34718
2501.45305	0.34487
2499.52440	0.33857
2497.59576	0.33024
2495.66711	0.32293
2493.73847	0.31954
2491.80982	0.32172
2489.88118	0.32918
2487.95253	0.33980
2486.02389	0.35030
2484.09524	0.35783
2482.16659	0.36129
2480.23795	0.36123
2478.30930	0.35890
2476.38066	0.35570
2474.45201	0.35284
2472.52337	0.35093
2470.59472	0.35019
2468.66608	0.35084
2466.73743	0.35288
2464.80879	0.35549
2462.88014	0.35738
2460.95150	0.35745
2459.02285	0.35508
2457.09420	0.35014
2455.16556	0.34340
2453.23691	0.33669
2451.30827	0.33201
2449.37962	0.33052
2447.45098	0.33181
2445.52233	0.33386
2443.59369	0.33414
2441.66504	0.33131
2439.73640	0.32629
2437.80775	0.32171
2435.87911	0.32032
2433.95046	0.32364
2432.02181	0.33114
2430.09317	0.34035
2428.16452	0.34826
2426.23588	0.35298
2424.30723	0.35457
2422.37859	0.35435
2420.44994	0.35351
2418.52130	0.35240
2416.59265	0.35089
2414.66401	0.34878
2412.73536	0.34592
2410.80672	0.34260
2408.87807	0.34003
2406.94942	0.33988
2405.02078	0.34289
2403.09213	0.34821
2401.16349	0.35420
2399.23484	0.35926
2397.30620	0.36213
2395.37755	0.36214
2393.44891	0.35960
2391.52026	0.35561
2389.59162	0.35132
2387.66297	0.34759
2385.73433	0.34528
2383.80568	0.34551
2381.87703	0.34943
2379.94839	0.35777
2378.01974	0.37022
2376.09110	0.38489
2374.16245	0.39827
2372.23381	0.40592
2370.30516	0.40402
2368.37652	0.39115
2366.44787	0.36936
2364.51923	0.34387
2362.59058	0.32117
2360.66194	0.30642
2358.73329	0.30189
2356.80465	0.30658
2354.87600	0.31734
2352.94735	0.33074
2351.01871	0.34442
2349.09006	0.35730
2347.16142	0.36853
2345.23277	0.37663
2343.30413	0.37993
2341.37548	0.37742
2339.44684	0.36945
2337.51819	0.35823
2335.58955	0.34720
2333.66090	0.33948
2331.73226	0.33650
2329.80361	0.33762
2327.87496	0.34080
2325.94632	0.34330
2324.01767	0.34264
2322.08903	0.33780
2320.16038	0.32966
2318.23174	0.32067
2316.30309	0.31387
2314.37445	0.31172
2312.44580	0.31517
2310.51716	0.32316
2308.58851	0.33301
2306.65987	0.34161
2304.73122	0.34661
2302.80257	0.34707
2300.87393	0.34337
2298.94528	0.33671
2297.01664	0.32868
2295.08799	0.32098
2293.15935	0.31498
2291.23070	0.31136
2289.30206	0.30992
2287.37341	0.30966
2285.44477	0.30912
2283.51612	0.30688
2281.58748	0.30255
2279.65883	0.29715
2277.73018	0.29261
2275.80154	0.29080
2273.87289	0.29269
2271.94425	0.29778
2270.01560	0.30410
2268.08696	0.30906
2266.15831	0.31068
2264.22967	0.30835
2262.30102	0.30250
2260.37238	0.29425
2258.44373	0.28513
2256.51509	0.27683
2254.58644	0.27051
2252.65779	0.26680
2250.72915	0.26654
2248.80050	0.27071
2246.87186	0.27877
2244.94321	0.28719
2243.01457	0.29084
2241.08592	0.28596
2239.15728	0.27240
2237.22863	0.25462
2235.29999	0.24089
2233.37134	0.23926
2231.44270	0.25179
2229.51405	0.27247
2227.58541	0.29173
2225.65676	0.30288
2223.72811	0.30518
2221.79947	0.30292
2219.87082	0.30127
2217.94218	0.30145
2216.01353	0.29899
2214.08489	0.28725
2212.15624	0.26330
2210.22760	0.23054
2208.29895	0.19719
2206.37031	0.17155
2204.44166	0.15687
2202.51302	0.15055
2200.58437	0.14785
2198.65572	0.14505
2196.72708	0.13991
2194.79843	0.13159
2192.86979	0.12063
2190.94114	0.10741
2189.01250	0.09130
2187.08385	0.07343
2185.15521	0.05885
2183.22656	0.05423
2181.29792	0.06405
2179.36927	0.08911
2177.44063	0.12758
2175.51198	0.17536
2173.58333	0.22491
2171.65469	0.26541
2169.72604	0.28716
2167.79740	0.28679
2165.86875	0.26737
2163.94011	0.23550
2162.01146	0.20005
2160.08282	0.16971
2158.15417	0.14728
2156.22553	0.12922
2154.29688	0.11344
2152.36824	0.10340
2150.43959	0.10397
2148.51094	0.11660
2146.58230	0.13790
2144.65365	0.16011
2142.72501	0.17393
2140.79636	0.17509
2138.86772	0.16818
2136.93907	0.16258
2135.01043	0.16649
2133.08178	0.18446
2131.15314	0.21560
2129.22449	0.25268
2127.29585	0.28521
2125.36720	0.30512
2123.43856	0.31004
2121.50991	0.30177
2119.58126	0.28431
2117.65262	0.26386
2115.72397	0.24714
2113.79533	0.23722
2111.86668	0.23232
2109.93804	0.22952
2108.00939	0.22788
2106.08075	0.22715
2104.15210	0.22649
2102.22346	0.22573
2100.29481	0.22572
2098.36617	0.22649
2096.43752	0.22710
2094.50887	0.22745
2092.58023	0.22868
2090.65158	0.23180
2088.72294	0.23693
2086.79429	0.24367
2084.86565	0.25117
2082.93700	0.25800
2081.00836	0.26275
2079.07971	0.26478
2077.15107	0.26424
2075.22242	0.26144
2073.29378	0.25651
2071.36513	0.24973
2069.43648	0.24186
2067.50784	0.23407
2065.57919	0.22772
2063.65055	0.22426
2061.72190	0.22515
2059.79326	0.23163
2057.86461	0.24432
2055.93597	0.26274
2054.00732	0.28444
2052.07868	0.30417
2050.15003	0.31430
2048.22139	0.30770
2046.29274	0.28169
2044.36409	0.24076
2042.43545	0.19550
2040.50680	0.15810
2038.57816	0.13610
2036.64951	0.12793
2034.72087	0.12364
2032.79222	0.11135
2030.86358	0.08531
2028.93493	0.04991
2027.00629	0.01699
2025.07764	0.00000
2023.14900	0.00680
2021.22035	0.03468
2019.29170	0.07291
2017.36306	0.10991
2015.43441	0.13930
2013.50577	0.16056
2011.57712	0.17652
2009.64848	0.19117
2007.71983	0.20762
2005.79119	0.22670
2003.86254	0.24783
2001.93390	0.27098
2000.00525	0.29629
1998.07661	0.32140
1996.14796	0.34083
1994.21932	0.34838
1992.29067	0.33995
1990.36202	0.31543
1988.43338	0.27969
1986.50473	0.24167
1984.57609	0.21100
1982.64744	0.19387
1980.71880	0.19078
1978.79015	0.19693
1976.86151	0.20442
1974.93286	0.20599
1973.00422	0.19870
1971.07557	0.18512
1969.14693	0.17142
1967.21828	0.16403
1965.28963	0.16678
1963.36099	0.17927
1961.43234	0.19722
1959.50370	0.21520
1957.57505	0.22978
1955.64641	0.24021
1953.71776	0.24673
1951.78912	0.24931
1949.86047	0.24769
1947.93183	0.24192
1946.00318	0.23309
1944.07454	0.22392
1942.14589	0.21811
1940.21724	0.21797
1938.28860	0.22255
1936.35995	0.22820
1934.43131	0.23104
1932.50266	0.22943
1930.57402	0.22515
1928.64537	0.22252
1926.71673	0.22588
1924.78808	0.23679
1922.85944	0.25289
1920.93079	0.26899
1919.00215	0.27951
1917.07350	0.28088
1915.14485	0.27272
1913.21621	0.25768
1911.28756	0.24014
1909.35892	0.22450
1907.43027	0.21402
1905.50163	0.21029
1903.57298	0.21316
1901.64434	0.22108
1899.71569	0.23167
1897.78705	0.24238
1895.85840	0.25106
1893.92976	0.25630
1892.00111	0.25750
1890.07246	0.25469
1888.14382	0.24841
1886.21517	0.23970
1884.28653	0.23003
1882.35788	0.22114
1880.42924	0.21479
1878.50059	0.21248
1876.57195	0.21495
1874.64330	0.22175
1872.71466	0.23133
1870.78601	0.24143
1868.85737	0.24976
1866.92872	0.25451
1865.00008	0.25503
1863.07143	0.25208
1861.14278	0.24763
1859.21414	0.24394
1857.28549	0.24274
1855.35685	0.24463
1853.42820	0.24897
1851.49956	0.25430
1849.57091	0.25904
1847.64227	0.26218
1845.71362	0.26352
1843.78498	0.26332
1841.85633	0.26186
1839.92769	0.25933
1837.99904	0.25591
1836.07039	0.25200
1834.14175	0.24831
1832.21310	0.24577
1830.28446	0.24517
1828.35581	0.24680
1826.42717	0.25026
1824.49852	0.25463
1822.56988	0.25872
1820.64123	0.26152
1818.71259	0.26257
1816.78394	0.26209
1814.85530	0.26084
1812.92665	0.25985
1810.99800	0.25993
1809.06936	0.26125
1807.14071	0.26330
1805.21207	0.26528
1803.28342	0.26659
1801.35478	0.26714
1799.42613	0.26737
1797.49749	0.26791
1795.56884	0.26922
1793.64020	0.27137
1791.71155	0.27403
1789.78291	0.27674
1787.85426	0.27923
1785.92561	0.28146
1783.99697	0.28351
1782.06832	0.28532
1780.13968	0.28681
1778.21103	0.28789
1776.28239	0.28861
1774.35374	0.28917
1772.42510	0.29005
1770.49645	0.29179
1768.56781	0.29481
1766.63916	0.29921
1764.71052	0.30475
1762.78187	0.31090
1760.85322	0.31698
1758.92458	0.32247
1756.99593	0.32737
1755.06729	0.33226
1753.13864	0.33820
1751.21000	0.34625
1749.28135	0.35694
1747.35271	0.36981
1745.42406	0.38343
1743.49542	0.39600
1741.56677	0.40621
1739.63813	0.41387
1737.70948	0.41997
1735.78084	0.42628
1733.85219	0.43447
1731.92354	0.44516
1729.99490	0.45748
1728.06625	0.46954
1726.13761	0.47957
1724.20896	0.48693
1722.28032	0.49243
1720.35167	0.49806
1718.42303	0.50601
1716.49438	0.51758
1714.56574	0.53239
1712.63709	0.54870
1710.70845	0.56441
1708.77980	0.57820
1706.85115	0.59017
1704.92251	0.60181
1702.99386	0.61552
1701.06522	0.63375
1699.13657	0.65802
1697.20793	0.68823
1695.27928	0.72268
1693.35064	0.75880
1691.42199	0.79405
1689.49335	0.82677
1687.56470	0.85667
1685.63606	0.88469
1683.70741	0.91228
1681.77876	0.94050
1679.85012	0.96957
1677.92147	0.99921
1675.99283	1.02917
1674.06418	1.05958
1672.13554	1.09093
1670.20689	1.12381
1668.27825	1.15824
1666.34960	1.19319
1664.42096	1.22661
1662.49231	1.25618
1660.56367	1.28022
1658.63502	1.29828
1656.70637	1.31129
1654.77773	1.32132
1652.84908	1.33079
1650.92044	1.34130
1648.99179	1.35305
1647.06315	1.36493
1645.13450	1.37530
1643.20586	1.38281
1641.27721	1.38699
1639.34857	1.38844
1637.41992	1.38838
1635.49128	1.38772
1633.56263	1.38645
1631.63399	1.38354
1629.70534	1.37760
1627.77669	1.36755
1625.84805	1.35329
1623.91940	1.33586
1621.99076	1.31716
1620.06211	1.29925
1618.13347	1.28379
1616.20482	1.27166
1614.27618	1.26290
1612.34753	1.25684
1610.41889	1.25255
1608.49024	1.24914
1606.56160	1.24598
1604.63295	1.24271
1602.70430	1.23926
1600.77566	1.23558
1598.84701	1.23141
1596.91837	1.22618
1594.98972	1.21920
1593.06108	1.20993
1591.13243	1.19823
1589.20379	1.18441
1587.27514	1.16909
1585.34650	1.15304
1583.41785	1.13692
1581.48921	1.12114
1579.56056	1.10600
1577.63191	1.09194
1575.70327	1.07954
1573.77462	1.06919
1571.84598	1.06065
1569.91733	1.05292
1567.98869	1.04446
1566.06004	1.03376
1564.13140	1.02007
1562.20275	1.00396
1560.27411	0.98728
1558.34546	0.97222
1556.41682	0.96011
1554.48817	0.95057
1552.55952	0.94167
1550.63088	0.93069
1548.70223	0.91546
1546.77359	0.89540
1544.84494	0.87189
1542.91630	0.84769
1540.98765	0.82575
1539.05901	0.80802
1537.13036	0.79483
1535.20172	0.78506
1533.27307	0.77688
1531.34443	0.76872
1529.41578	0.75991
1527.48713	0.75088
1525.55849	0.74276
1523.62984	0.73661
1521.70120	0.73256
1519.77255	0.72938
1517.84391	0.72476
1515.91526	0.71628
1513.98662	0.70256
1512.05797	0.68387
1510.12933	0.66209
1508.20068	0.63985
1506.27204	0.61948
1504.34339	0.60211
1502.41475	0.58741
1500.48610	0.57423
1498.55745	0.56151
1496.62881	0.54884
1494.70016	0.53656
1492.77152	0.52549
1490.84287	0.51659
1488.91423	0.51053
1486.98558	0.50747
1485.05694	0.50704
1483.12829	0.50877
1481.19965	0.51241
1479.27100	0.51824
1477.34236	0.52704
1475.41371	0.53966
1473.48506	0.55652
1471.55642	0.57687
1469.62777	0.59857
1467.69913	0.61869
1465.77048	0.63461
1463.84184	0.64510
1461.91319	0.65061
1459.98455	0.65292
1458.05590	0.65425
1456.12726	0.65612
1454.19861	0.65875
1452.26997	0.66115
1450.34132	0.66187
1448.41267	0.65977
1446.48403	0.65455
1444.55538	0.64697
1442.62674	0.63870
1440.69809	0.63188
1438.76945	0.62856
1436.84080	0.63015
1434.91216	0.63701
1432.98351	0.64829
1431.05487	0.66220
1429.12622	0.67665
1427.19758	0.68993
1425.26893	0.70125
1423.34028	0.71093
1421.41164	0.72018
1419.48299	0.73040
1417.55435	0.74252
1415.62570	0.75657
1413.69706	0.77168
1411.76841	0.78650
1409.83977	0.79963
1407.91112	0.81016
1405.98248	0.81786
1404.05383	0.82310
1402.12519	0.82661
1400.19654	0.82912
1398.26789	0.83120
1396.33925	0.83310
1394.41060	0.83474
1392.48196	0.83586
1390.55331	0.83610
1388.62467	0.83517
1386.69602	0.83293
1384.76738	0.82933
1382.83873	0.82437
1380.91009	0.81813
1378.98144	0.81072
1377.05280	0.80235
1375.12415	0.79315
1373.19551	0.78320
1371.26686	0.77249
1369.33821	0.76102
1367.40957	0.74895
1365.48092	0.73673
1363.55228	0.72514
1361.62363	0.71498
1359.69499	0.70680
1357.76634	0.70051
1355.83770	0.69543
1353.90905	0.69051
1351.98041	0.68470
1350.05176	0.67735
1348.12312	0.66849
1346.19447	0.65880
1344.26582	0.64931
1342.33718	0.64099
1340.40853	0.63439
1338.47989	0.62947
1336.55124	0.62569
1334.62260	0.62225
1332.69395	0.61850
1330.76531	0.61421
1328.83666	0.60959
1326.90802	0.60525
1324.97937	0.60180
1323.05073	0.59956
1321.12208	0.59836
1319.19343	0.59766
1317.26479	0.59682
1315.33614	0.59535
1313.40750	0.59319
1311.47885	0.59067
1309.55021	0.58837
1307.62156	0.58675
1305.69292	0.58603
1303.76427	0.58614
1301.83563	0.58684
1299.90698	0.58787
1297.97834	0.58908
1296.04969	0.59051
1294.12104	0.59233
1292.19240	0.59471
1290.26375	0.59775
1288.33511	0.60146
1286.40646	0.60574
1284.47782	0.61048
1282.54917	0.61559
1280.62053	0.62105
1278.69188	0.62672
1276.76324	0.63222
1274.83459	0.63701
1272.90595	0.64054
1270.97730	0.64252
1269.04866	0.64313
1267.12001	0.64301
1265.19136	0.64297
1263.26272	0.64364
1261.33407	0.64514
1259.40543	0.64713
1257.47678	0.64903
1255.54814	0.65029
1253.61949	0.65057
1251.69085	0.64977
1249.76220	0.64803
1247.83356	0.64561
1245.90491	0.64287
1243.97627	0.64030
1242.04762	0.63842
1240.11897	0.63771
1238.19033	0.63838
1236.26168	0.64031
1234.33304	0.64304
1232.40439	0.64594
1230.47575	0.64828
1228.54710	0.64951
1226.61846	0.64938
1224.68981	0.64804
1222.76117	0.64585
1220.83252	0.64323
1218.90388	0.64059
1216.97523	0.63818
1215.04658	0.63603
1213.11794	0.63410
1211.18929	0.63238
1209.26065	0.63083
1207.33200	0.62925
1205.40336	0.62721
1203.47471	0.62438
1201.54607	0.62086
1199.61742	0.61724
1197.68878	0.61468
1195.76013	0.61468
1193.83149	0.61851
1191.90284	0.62670
1189.97419	0.63892
1188.04555	0.65447
1186.11690	0.67258
1184.18826	0.69245
1182.25961	0.71328
1180.33097	0.73470
1178.40232	0.75686
1176.47368	0.78027
1174.54503	0.80557
1172.61639	0.83350
1170.68774	0.86444
1168.75910	0.89758
1166.83045	0.93115
1164.90180	0.96360
1162.97316	0.99448
1161.04451	1.02422
1159.11587	1.05360
1157.18722	1.08354
1155.25858	1.11472
1153.32993	1.14686
1151.40129	1.17916
1149.47264	1.21130
1147.54400	1.24387
1145.61535	1.27770
1143.68671	1.31346
1141.75806	1.35185
1139.82942	1.39350
1137.90077	1.43843
1135.97212	1.48576
1134.04348	1.53399
1132.11483	1.58124
1130.18619	1.62555
1128.25754	1.66561
1126.32890	1.70128
1124.40025	1.73333
1122.47161	1.76251
1120.54296	1.78897
1118.61432	1.81230
1116.68567	1.83207
1114.75703	1.84849
1112.82838	1.86263
1110.89973	1.87611
1108.97109	1.89043
1107.04244	1.90618
1105.11380	1.92273
1103.18515	1.93880
1101.25651	1.95329
1099.32786	1.96575
1097.39922	1.97632
1095.47057	1.98533
1093.54193	1.99284
1091.61328	1.99817
1089.68464	2.00000
1087.75599	1.99722
1085.82734	1.98978
1083.89870	1.97877
1081.97005	1.96578
1080.04141	1.95198
1078.11276	1.93759
1076.18412	1.92165
1074.25547	1.90239
1072.32683	1.87821
1070.39818	1.84879
1068.46954	1.81516
1066.54089	1.77916
1064.61225	1.74274
1062.68360	1.70757
1060.75495	1.67442
1058.82631	1.64245
1056.89766	1.60973
1054.96902	1.57465
1053.04037	1.53680
1051.11173	1.49705
1049.18308	1.45723
1047.25444	1.41960
1045.32579	1.38582
1043.39715	1.35610
1041.46850	1.32927
1039.53986	1.30381
1037.61121	1.27852
1035.68256	1.25252
1033.75392	1.22541
1031.82527	1.19738
1029.89663	1.16909
1027.96798	1.14121
1026.03934	1.11436
1024.11069	1.08930
1022.18205	1.06695
1020.25340	1.04790
1018.32476	1.03232
1016.39611	1.01998
1014.46747	1.00987
1012.53882	1.00020
1010.61018	0.98930
1008.68153	0.97683
1006.75288	0.96394
1004.82424	0.95241
1002.89559	0.94406
1000.96695	0.94024
999.03830	0.94111
997.10966	0.94522
995.18101	0.95032
993.25237	0.95440
991.32372	0.95590
989.39508	0.95347
987.46643	0.94637
985.53779	0.93477
983.60914	0.91920
981.68049	0.89979
979.75185	0.87646
977.82320	0.84944
975.89456	0.81914
973.96591	0.78643
972.03727	0.75334
970.10862	0.72263
968.17998	0.69602
966.25133	0.67329
964.32269	0.65294
962.39404	0.63317
960.46540	0.61242
958.53675	0.59041
956.60810	0.56874
954.67946	0.54970
952.75081	0.53438
950.82217	0.52217
948.89352	0.51175
946.96488	0.50223
945.03623	0.49356
943.10759	0.48635
941.17894	0.48131
939.25030	0.47855
937.32165	0.47717
935.39301	0.47563
933.46436	0.47267
931.53571	0.46826
929.60707	0.46361
927.67842	0.46039
925.74978	0.45939
923.82113	0.46004
921.89249	0.46079
919.96384	0.45995
918.03520	0.45632
916.10655	0.44957
914.17791	0.44083
912.24926	0.43250
910.32062	0.42667
908.39197	0.42376
906.46333	0.42313
904.53468	0.42416
902.60603	0.42647
900.67739	0.42971
898.74874	0.43400
896.82010	0.44026
894.89145	0.44911
892.96281	0.45957
891.03416	0.46973
889.10552	0.47802
887.17687	0.48373
885.24823	0.48698
883.31958	0.48882
881.39094	0.49124
879.46229	0.49628
877.53364	0.50463
875.60500	0.51508
873.67635	0.52532
871.74771	0.53327
869.81906	0.53770
867.89042	0.53832
865.96177	0.53598
864.03313	0.53276
862.10448	0.53077
860.17584	0.53061
858.24719	0.53148
856.31855	0.53210
854.38990	0.53094
852.46125	0.52644
850.53261	0.51842
848.60396	0.50882
846.67532	0.50062
844.74667	0.49589
842.81803	0.49469
840.88938	0.49523
838.96074	0.49471
837.03209	0.49046
835.10345	0.48147
833.17480	0.46899
831.24616	0.45561
829.31751	0.44364
827.38886	0.43407
825.46022	0.42713
823.53157	0.42280
821.60293	0.42043
819.67428	0.41906
817.74564	0.41809
815.81699	0.41722
813.88835	0.41630
811.95970	0.41574
810.03106	0.41665
808.10241	0.41971
806.17377	0.42418
804.24512	0.42891
802.31647	0.43325
800.38783	0.43706
798.45918	0.44080
796.53054	0.44577
794.60189	0.45268
792.67325	0.46029
790.74460	0.46636
788.81596	0.46956
786.88731	0.46974
784.95867	0.46722
783.03002	0.46319
781.10138	0.45961
779.17273	0.45781
777.24409	0.45775
775.31544	0.45899
773.38679	0.46118
771.45815	0.46343
769.52950	0.46455
767.60086	0.46402
765.67221	0.46233
763.74357	0.46038
761.81492	0.45894
759.88628	0.45848
757.95763	0.45891
756.02899	0.45992
754.10034	0.46177
752.17170	0.46559
750.24305	0.47196
748.31440	0.47958
746.38576	0.48572
744.45711	0.48810
742.52847	0.48638
740.59982	0.48214
738.67118	0.47823
736.74253	0.47760
734.81389	0.48110
732.88524	0.48635
730.95660	0.48977
729.02795	0.48960
727.09931	0.48672
725.17066	0.48339
723.24201	0.48194
721.31337	0.48380
719.38472	0.48869
717.45608	0.49469
715.52743	0.49946
713.59879	0.50155
711.67014	0.50087
709.74150	0.49848
707.81285	0.49598
705.88421	0.49482
703.95556	0.49585
702.02692	0.49910
700.09827	0.50395
698.16962	0.50964
696.24098	0.51587
694.31233	0.52291
692.38369	0.53111
690.45504	0.54027
688.52640	0.54930
686.59775	0.55642
684.66911	0.55983
682.74046	0.55862
680.81182	0.55379
678.88317	0.54800
676.95453	0.54399
675.02588	0.54323
673.09723	0.54544
671.16859	0.54875
669.23994	0.55049
667.31130	0.54863
665.38265	0.54349
663.45401	0.53762
661.52536	0.53372
659.59672	0.53331
657.66807	0.53652
655.73943	0.54227
653.81078	0.54882
651.88214	0.55465
649.95349	0.55956
648.02485	0.56447
646.09620	0.57043
644.16755	0.57790
642.23891	0.58665
640.31026	0.59584
638.38162	0.60407
636.45297	0.60972
634.52433	0.61183
632.59568	0.61151
630.66704	0.61255
628.73839	0.61992
626.80975	0.63688
624.88110	0.66283
622.95246	0.69362
621.02381	0.72443
619.09516	0.75313
617.16652	0.78187
615.23787	0.81543
613.30923	0.85617
611.38058	0.89931
609.45194	0.93323
607.52329	0.94540
605.59465	0.93012
603.66600	0.89199
601.73736	0.84338
599.80871	0.79839
597.88007	0.76617
595.95142	0.74772
594.02277	0.73795
592.09413	0.73062
590.16548	0.72243
588.23684	0.71375
586.30819	0.70670
584.37955	0.70295
582.45090	0.70247
580.52226	0.70399
578.59361	0.70662
576.66497	0.71084
574.73632	0.71827
572.80768	0.73077
570.87903	0.74935
568.95038	0.77323
567.02174	0.79963
565.09309	0.82450
563.16445	0.84400
561.23580	0.85580
559.30716	0.85997
557.37851	0.85887
555.44987	0.85616
553.52122	0.85517
551.59258	0.85759
549.66393	0.86314
547.73529	0.87042
545.80664	0.87811
543.87800	0.88572
541.94935	0.89343
540.02070	0.90111
538.09206	0.90755
536.16341	0.91071
534.23477	0.90879
532.30612	0.90115
530.37748	0.88864
528.44883	0.87302
526.52019	0.85578
524.59154	0.83735
522.66290	0.81736
520.73425	0.79542
518.80561	0.77157
516.87696	0.74632
514.94831	0.72052
513.01967	0.69501
511.09102	0.67051
509.16238	0.64794
507.23373	0.62854
505.30509	0.61308
503.37644	0.60118
501.44780	0.59163
499.51915	0.58333
497.59051	0.57595
495.66186	0.57000
493.73322	0.56640
491.80457	0.56546
489.87592	0.56614
487.94728	0.56650
486.01863	0.56505
484.08999	0.56174
482.16134	0.55782
480.23270	0.55461
478.30405	0.55221
476.37541	0.54924
474.44676	0.54410
472.51812	0.53638
470.58947	0.52697
468.66083	0.51720
466.73218	0.50785
464.80353	0.49866
462.87489	0.48864
460.94624	0.47730
459.01760	0.46593
457.08895	0.45719
455.16031	0.45332
453.23166	0.45427
451.30302	0.45721
449.37437	0.45773
447.44573	0.45209
445.51708	0.43934
443.58844	0.42197
441.65979	0.40473
439.73114	0.39251
437.80250	0.38806
435.87385	0.39077
433.94521	0.39714
432.01656	0.40239
430.08792	0.40233
428.15927	0.39478
426.23063	0.38010
424.30198	0.36100
422.37334	0.34153
420.44469	0.32568
418.51605	0.31602
416.58740	0.31280
414.65876	0.31370
412.73011	0.31470
410.80146	0.31158
408.87282	0.30172
406.94417	0.28521
405.01553	0.26478
403.08688	0.24471
401.15824	0.22916
399.22959	0.22081
397.30095	0.21998
395.37230	0.22483
393.44366	0.23231
391.51501	0.23936
389.58637	0.24384
387.65772	0.24496
385.72907	0.24330
383.80043	0.24050
381.87178	0.23873
379.94314	0.23966
378.01449	0.24353
376.08585	0.24854
374.15720	0.25109
372.22856	0.24694
370.29991	0.23289
368.37127	0.20847
366.44262	0.17671
364.51398	0.14327
362.58533	0.11449
360.65668	0.09531
358.72804	0.08803
356.79939	0.09206
354.87075	0.10444
352.94210	0.12087
351.01346	0.13677
349.08481	0.14776
347.15617	0.14982
345.22752	0.14020
343.29888	0.11881
341.37023	0.08883
339.44159	0.05613
337.51294	0.02786
335.58429	0.01055
333.65565	0.00807
331.72700	0.01912
329.79836	0.03847
327.86971	0.05978
325.94107	0.07784
324.01242	0.08985
322.08378	0.09557
320.15513	0.09669
318.22649	0.09540
316.29784	0.09307
314.36920	0.09009
312.44055	0.08650
310.51190	0.08250
308.58326	0.07860
306.65461	0.07540
304.72597	0.07335
302.79732	0.07256
300.86868	0.07282
298.94003	0.07386
297.01139	0.07554
295.08274	0.07776
293.15410	0.08010
291.22545	0.08165
289.29681	0.08089
287.36816	0.07626
285.43952	0.06724
283.51087	0.05578
281.58222	0.04642
279.65358	0.04471
277.72493	0.05465
275.79629	0.07665
273.86764	0.10675
271.93900	0.13793
270.01035	0.16305
268.08171	0.17774
266.15306	0.18141
264.22442	0.17624
262.29577	0.16570
260.36713	0.15363
258.43848	0.14429
256.50983	0.14220
254.58119	0.15111
252.65254	0.17189
250.72390	0.20088
248.79525	0.23087
246.86661	0.25478
244.93796	0.26980
243.00932	0.27880
241.08067	0.28746
239.15203	0.29871
237.22338	0.30902
235.29474	0.30966
233.36609	0.29275
231.43744	0.25789
229.50880	0.21432
227.58015	0.17695
225.65151	0.15933
223.72286	0.16751
221.79422	0.19833
219.86557	0.24284
217.93693	0.29196
216.00828	0.34009
214.07964	0.38493
212.15099	0.42568
210.22235	0.46167
208.29370	0.49088
206.36505	0.50930
204.43641	0.51228
202.50776	0.49699
200.57912	0.46377
198.65047	0.41688
196.72183	0.36474
194.79318	0.31801
192.86454	0.28505
190.93589	0.26855
189.00725	0.26577
187.07860	0.27130
185.14996	0.28022
183.22131	0.29015
181.29267	0.30125
179.36402	0.31476
177.43537	0.33247
175.50673	0.35752
173.57808	0.39437
171.64944	0.44698
169.72079	0.51548
167.79215	0.59324
165.86350	0.66638
163.93486	0.71914
162.00621	0.75007
160.07757	0.76075
158.14892	0.75866
156.22028	0.75324
154.29163	0.75324
152.36298	0.75324
150.43434	0.75324
148.50569	0.75324
