4497.60101	0.05052
4495.67236	0.05052
4493.74372	0.05052
4491.81507	0.05052
4489.88643	0.05052
4487.95778	0.05097
4486.02914	0.05156
4484.10049	0.05199
4482.17185	0.05208
4480.24320	0.05172
4478.31455	0.05044
4476.38591	0.04948
4474.45726	0.04972
4472.52862	0.05084
4470.59997	0.05190
4468.67133	0.05226
4466.74268	0.05160
4464.81404	0.04982
4462.88539	0.04738
4460.95675	0.04532
4459.02810	0.04411
4457.09946	0.04315
4455.17081	0.04174
4453.24216	0.03970
4451.31352	0.03730
4449.38487	0.03522
4447.45623	0.03437
4445.52758	0.03493
4443.59894	0.03580
4441.67029	0.03537
4439.74165	0.03268
4437.81300	0.02780
4435.88436	0.02183
4433.95571	0.01695
4432.02707	0.01535
4430.09842	0.01766
4428.16978	0.02279
4426.24113	0.02883
4424.31248	0.03405
4422.38384	0.03751
4420.45519	0.03939
4418.52655	0.04047
4416.59790	0.04135
4414.66926	0.04200
4412.74061	0.04185
4410.81197	0.04005
4408.88332	0.03621
4406.95468	0.03116
4405.02603	0.02645
4403.09739	0.02320
4401.16874	0.02180
4399.24009	0.02246
4397.31145	0.02488
4395.38280	0.02785
4393.45416	0.03014
4391.52551	0.03139
4389.59687	0.03186
4387.66822	0.03181
4385.73958	0.03147
4383.81093	0.03166
4381.88229	0.03324
4379.95364	0.03634
4378.02500	0.04040
4376.09635	0.04486
4374.16770	0.04914
4372.23906	0.05206
4370.31041	0.05219
4368.38177	0.04932
4366.45312	0.04490
4364.52448	0.04080
4362.59583	0.03810
4360.66719	0.03698
4358.73854	0.03690
4356.80990	0.03637
4354.88125	0.03386
4352.95261	0.02930
4351.02396	0.02438
4349.09531	0.02111
4347.16667	0.02056
4345.23802	0.02260
4343.30938	0.02641
4341.38073	0.03105
4339.45209	0.03593
4337.52344	0.04075
4335.59480	0.04509
4333.66615	0.04820
4331.73751	0.04921
4329.80886	0.04745
4327.88022	0.04325
4325.95157	0.03826
4324.02292	0.03464
4322.09428	0.03357
4320.16563	0.03469
4318.23699	0.03656
4316.30834	0.03760
4314.37970	0.03684
4312.45105	0.03435
4310.52241	0.03119
4308.59376	0.02872
4306.66512	0.02790
4304.73647	0.02892
4302.80783	0.03105
4300.87918	0.03295
4298.95054	0.03339
4297.02189	0.03199
4295.09324	0.02944
4293.16460	0.02699
4291.23595	0.02562
4289.30731	0.02550
4287.37866	0.02576
4285.45002	0.02481
4283.52137	0.02168
4281.59273	0.01736
4279.66408	0.01423
4277.73544	0.01415
4275.80679	0.01723
4273.87815	0.02233
4271.94950	0.02782
4270.02085	0.03221
4268.09221	0.03490
4266.16356	0.03642
4264.23492	0.03757
4262.30627	0.03854
4260.37763	0.03910
4258.44898	0.03924
4256.52034	0.03959
4254.59169	0.04085
4252.66305	0.04289
4250.73440	0.04424
4248.80576	0.04298
4246.87711	0.03827
4244.94846	0.03123
4243.01982	0.02442
4241.09117	0.02054
4239.16253	0.02103
4237.23388	0.02535
4235.30524	0.03121
4233.37659	0.03568
4231.44795	0.03680
4229.51930	0.03446
4227.59066	0.03012
4225.66201	0.02562
4223.73337	0.02246
4221.80472	0.02168
4219.87607	0.02348
4217.94743	0.02697
4216.01878	0.03066
4214.09014	0.03345
4212.16149	0.03510
4210.23285	0.03597
4208.30420	0.03659
4206.37556	0.03735
4204.44691	0.03814
4202.51827	0.03826
4200.58962	0.03712
4198.66098	0.03482
4196.73233	0.03211
4194.80368	0.02991
4192.87504	0.02900
4190.94639	0.02963
4189.01775	0.03122
4187.08910	0.03264
4185.16046	0.03304
4183.23181	0.03246
4181.30317	0.03149
4179.37452	0.03068
4177.44588	0.03043
4175.51723	0.03117
4173.58859	0.03307
4171.65994	0.03592
4169.73130	0.03915
4167.80265	0.04216
4165.87400	0.04428
4163.94536	0.04469
4162.01671	0.04285
4160.08807	0.03944
4158.15942	0.03595
4156.23078	0.03347
4154.30213	0.03215
4152.37349	0.03164
4150.44484	0.03163
4148.51620	0.03199
4146.58755	0.03294
4144.65891	0.03503
4142.73026	0.03826
4140.80161	0.04167
4138.87297	0.04406
4136.94432	0.04479
4135.01568	0.04391
4133.08703	0.04200
4131.15839	0.03994
4129.22974	0.03834
4127.30110	0.03714
4125.37245	0.03583
4123.44381	0.03409
4121.51516	0.03193
4119.58652	0.02946
4117.65787	0.02694
4115.72922	0.02490
4113.80058	0.02382
4111.87193	0.02377
4109.94329	0.02440
4108.01464	0.02530
4106.08600	0.02611
4104.15735	0.02630
4102.22871	0.02539
4100.30006	0.02329
4098.37142	0.02062
4096.44277	0.01852
4094.51413	0.01821
4092.58548	0.02054
4090.65683	0.02549
4088.72819	0.03187
4086.79954	0.03763
4084.87090	0.04093
4082.94225	0.04132
4081.01361	0.03984
4079.08496	0.03803
4077.15632	0.03711
4075.22767	0.03749
4073.29903	0.03865
4071.37038	0.03964
4069.44174	0.03994
4067.51309	0.04004
4065.58444	0.04107
4063.65580	0.04385
4061.72715	0.04804
4059.79851	0.05216
4057.86986	0.05440
4055.94122	0.05373
4054.01257	0.05035
4052.08393	0.04558
4050.15528	0.04137
4048.22664	0.03932
4046.29799	0.03973
4044.36935	0.04182
4042.44070	0.04460
4040.51206	0.04729
4038.58341	0.04914
4036.65476	0.04959
4034.72612	0.04861
4032.79747	0.04659
4030.86883	0.04412
4028.94018	0.04214
4027.01154	0.04159
4025.08289	0.04275
4023.15425	0.04506
4021.22560	0.04725
4019.29696	0.04778
4017.36831	0.04568
4015.43967	0.04143
4013.51102	0.03666
4011.58237	0.03318
4009.65373	0.03248
4007.72508	0.03527
4005.79644	0.04059
4003.86779	0.04627
4001.93915	0.05024
4000.01050	0.05165
3998.08186	0.05071
3996.15321	0.04812
3994.22457	0.04488
3992.29592	0.04188
3990.36728	0.03936
3988.43863	0.03713
3986.50998	0.03515
3984.58134	0.03380
3982.65269	0.03355
3980.72405	0.03461
3978.79540	0.03685
3976.86676	0.03977
3974.93811	0.04265
3973.00947	0.04484
3971.08082	0.04596
3969.15218	0.04586
3967.22353	0.04446
3965.29489	0.04180
3963.36624	0.03824
3961.43759	0.03449
3959.50895	0.03151
3957.58030	0.03019
3955.65166	0.03096
3953.72301	0.03353
3951.79437	0.03701
3949.86572	0.04028
3947.93708	0.04253
3946.00843	0.04349
3944.07979	0.04341
3942.15114	0.04288
3940.22250	0.04257
3938.29385	0.04296
3936.36521	0.04418
3934.43656	0.04592
3932.50791	0.04760
3930.57927	0.04874
3928.65062	0.04920
3926.72198	0.04924
3924.79333	0.04934
3922.86469	0.04989
3920.93604	0.05069
3919.00740	0.05091
3917.07875	0.04976
3915.15011	0.04713
3913.22146	0.04386
3911.29282	0.04131
3909.36417	0.04072
3907.43552	0.04261
3905.50688	0.04645
3903.57823	0.05102
3901.64959	0.05502
3899.72094	0.05776
3897.79230	0.05927
3895.86365	0.06009
3893.93501	0.06073
3892.00636	0.06139
3890.07772	0.06192
3888.14907	0.06200
3886.22043	0.06126
3884.29178	0.05963
3882.36313	0.05759
3880.43449	0.05606
3878.50584	0.05597
3876.57720	0.05771
3874.64855	0.06083
3872.71991	0.06407
3870.79126	0.06575
3868.86262	0.06472
3866.93397	0.06138
3865.00533	0.05778
3863.07668	0.05671
3861.14804	0.06015
3859.21939	0.06801
3857.29074	0.07778
3855.36210	0.08536
3853.43345	0.08686
3851.50481	0.08065
3849.57616	0.06829
3847.64752	0.05374
3845.71887	0.04146
3843.79023	0.03466
3841.86158	0.03422
3839.93294	0.03872
3838.00429	0.04538
3836.07565	0.05153
3834.14700	0.05567
3832.21835	0.05773
3830.28971	0.05846
3828.36106	0.05892
3826.43242	0.05991
3824.50377	0.06156
3822.57513	0.06327
3820.64648	0.06408
3818.71784	0.06327
3816.78919	0.06074
3814.86055	0.05715
3812.93190	0.05371
3811.00326	0.05165
3809.07461	0.05150
3807.14597	0.05276
3805.21732	0.05417
3803.28867	0.05438
3801.36003	0.05248
3799.43138	0.04848
3797.50274	0.04333
3795.57409	0.03844
3793.64545	0.03515
3791.71680	0.03438
3789.78816	0.03652
3787.85951	0.04118
3785.93087	0.04717
3784.00222	0.05285
3782.07358	0.05666
3780.14493	0.05772
3778.21628	0.05612
3776.28764	0.05290
3774.35899	0.04969
3772.43035	0.04788
3770.50170	0.04802
3768.57306	0.04978
3766.64441	0.05243
3764.71577	0.05542
3762.78712	0.05869
3760.85848	0.06264
3758.92983	0.06797
3757.00119	0.07528
3755.07254	0.08460
3753.14389	0.09502
3751.21525	0.10467
3749.28660	0.11147
3747.35796	0.11390
3745.42931	0.11166
3743.50067	0.10584
3741.57202	0.09857
3739.64338	0.09200
3737.71473	0.08711
3735.78609	0.08333
3733.85744	0.07934
3731.92880	0.07416
3730.00015	0.06785
3728.07150	0.06144
3726.14286	0.05645
3724.21421	0.05412
3722.28557	0.05496
3720.35692	0.05866
3718.42828	0.06436
3716.49963	0.07094
3714.57099	0.07706
3712.64234	0.08126
3710.71370	0.08236
3708.78505	0.08001
3706.85641	0.07493
3704.92776	0.06873
3702.99911	0.06338
3701.07047	0.06080
3699.14182	0.06226
3697.21318	0.06800
3695.28453	0.07721
3693.35589	0.08818
3691.42724	0.09864
3689.49860	0.10637
3687.56995	0.11027
3685.64131	0.11101
3683.71266	0.11098
3681.78402	0.11311
3679.85537	0.11953
3677.92673	0.13047
3675.99808	0.14406
3674.06943	0.15710
3672.14079	0.16665
3670.21214	0.17130
3668.28350	0.17157
3666.35485	0.16935
3664.42621	0.16700
3662.49756	0.16660
3660.56892	0.16964
3658.64027	0.17689
3656.71163	0.18845
3654.78298	0.20368
3652.85434	0.22122
3650.92569	0.23899
3648.99704	0.25470
3647.06840	0.26675
3645.13975	0.27496
3643.21111	0.28073
3641.28246	0.28653
3639.35382	0.29497
3637.42517	0.30777
3635.49653	0.32487
3633.56788	0.34457
3631.63924	0.36441
3629.71059	0.38228
3627.78195	0.39746
3625.85330	0.41081
3623.92465	0.42421
3621.99601	0.43937
3620.06736	0.45682
3618.13872	0.47570
3616.21007	0.49435
3614.28143	0.51133
3612.35278	0.52612
3610.42414	0.53925
3608.49549	0.55188
3606.56685	0.56507
3604.63820	0.57936
3602.70956	0.59470
3600.78091	0.61077
3598.85226	0.62717
3596.92362	0.64367
3594.99497	0.66024
3593.06633	0.67700
3591.13768	0.69407
3589.20904	0.71155
3587.28039	0.72934
3585.35175	0.74703
3583.42310	0.76397
3581.49446	0.77971
3579.56581	0.79442
3577.63717	0.80896
3575.70852	0.82454
3573.77988	0.84214
3571.85123	0.86194
3569.92258	0.88308
3567.99394	0.90393
3566.06529	0.92295
3564.13665	0.93954
3562.20800	0.95423
3560.27936	0.96820
3558.35071	0.98252
3556.42207	0.99767
3554.49342	1.01344
3552.56478	1.02927
3550.63613	1.04488
3548.70749	1.06068
3546.77884	1.07748
3544.85019	1.09577
3542.92155	1.11526
3540.99290	1.13502
3539.06426	1.15390
3537.13561	1.17105
3535.20697	1.18625
3533.27832	1.19994
3531.34968	1.21287
3529.42103	1.22570
3527.49239	1.23906
3525.56374	1.25368
3523.63510	1.27025
3521.70645	1.28914
3519.77780	1.31009
3517.84916	1.33215
3515.92051	1.35396
3513.99187	1.37419
3512.06322	1.39203
3510.13458	1.40744
3508.20593	1.42102
3506.27729	1.43375
3504.34864	1.44657
3502.42000	1.46010
3500.49135	1.47452
3498.56271	1.48955
3496.63406	1.50472
3494.70541	1.51959
3492.77677	1.53397
3490.84812	1.54800
3488.91948	1.56195
3486.99083	1.57597
3485.06219	1.58995
3483.13354	1.60360
3481.20490	1.61661
3479.27625	1.62880
3477.34761	1.64011
3475.41896	1.65065
3473.49032	1.66062
3471.56167	1.67036
3469.63302	1.68035
3467.70438	1.69123
3465.77573	1.70353
3463.84709	1.71737
3461.91844	1.73225
3459.98980	1.74727
3458.06115	1.76144
3456.13251	1.77396
3454.20386	1.78460
3452.27522	1.79376
3450.34657	1.80230
3448.41793	1.81106
3446.48928	1.82053
3444.56064	1.83079
3442.63199	1.84148
3440.70334	1.85192
3438.77470	1.86152
3436.84605	1.87010
3434.91741	1.87796
3432.98876	1.88560
3431.06012	1.89348
3429.13147	1.90180
3427.20283	1.91046
3425.27418	1.91911
3423.34554	1.92739
3421.41689	1.93509
3419.48825	1.94218
3417.55960	1.94864
3415.63095	1.95438
3413.70231	1.95930
3411.77366	1.96340
3409.84502	1.96683
3407.91637	1.96988
3405.98773	1.97286
3404.05908	1.97601
3402.13044	1.97925
3400.20179	1.98230
3398.27315	1.98481
3396.34450	1.98653
3394.41586	1.98750
3392.48721	1.98808
3390.55856	1.98874
3388.62992	1.98990
3386.70127	1.99167
3384.77263	1.99376
3382.84398	1.99556
3380.91534	1.99650
3378.98669	1.99642
3377.05805	1.99572
3375.12940	1.99513
3373.20076	1.99531
3371.27211	1.99654
3369.34347	1.99838
3367.41482	1.99988
3365.48617	2.00000
3363.55753	1.99812
3361.62888	1.99431
3359.70024	1.98930
3357.77159	1.98415
3355.84295	1.97993
3353.91430	1.97732
3351.98566	1.97647
3350.05701	1.97696
3348.12837	1.97796
3346.19972	1.97855
3344.27108	1.97794
3342.34243	1.97568
3340.41378	1.97183
3338.48514	1.96695
3336.55649	1.96191
3334.62785	1.95747
3332.69920	1.95393
3330.77056	1.95098
3328.84191	1.94784
3326.91327	1.94363
3324.98462	1.93792
3323.05598	1.93109
3321.12733	1.92426
3319.19869	1.91872
3317.27004	1.91539
3315.34140	1.91446
3313.41275	1.91536
3311.48410	1.91716
3309.55546	1.91904
3307.62681	1.92051
3305.69817	1.92149
3303.76952	1.92204
3301.84088	1.92225
3299.91223	1.92209
3297.98359	1.92149
3296.05494	1.92039
3294.12630	1.91869
3292.19765	1.91620
3290.26901	1.91268
3288.34036	1.90804
3286.41171	1.90249
3284.48307	1.89657
3282.55442	1.89088
3280.62578	1.88585
3278.69713	1.88139
3276.76849	1.87680
3274.83984	1.87106
3272.91120	1.86339
3270.98255	1.85380
3269.05391	1.84315
3267.12526	1.83289
3265.19662	1.82441
3263.26797	1.81858
3261.33932	1.81533
3259.41068	1.81369
3257.48203	1.81205
3255.55339	1.80885
3253.62474	1.80314
3251.69610	1.79487
3249.76745	1.78474
3247.83881	1.77396
3245.91016	1.76377
3243.98152	1.75491
3242.05287	1.74740
3240.12423	1.74073
3238.19558	1.73438
3236.26693	1.72810
3234.33829	1.72197
3232.40964	1.71612
3230.48100	1.71051
3228.55235	1.70475
3226.62371	1.69829
3224.69506	1.69075
3222.76642	1.68221
3220.83777	1.67317
3218.90913	1.66432
3216.98048	1.65612
3215.05184	1.64862
3213.12319	1.64156
3211.19455	1.63452
3209.26590	1.62710
3207.33725	1.61911
3205.40861	1.61058
3203.47996	1.60174
3201.55132	1.59296
3199.62267	1.58453
3197.69403	1.57638
3195.76538	1.56805
3193.83674	1.55893
3191.90809	1.54862
3189.97945	1.53737
3188.05080	1.52602
3186.12216	1.51575
3184.19351	1.50727
3182.26486	1.50032
3180.33622	1.49375
3178.40757	1.48621
3176.47893	1.47695
3174.55028	1.46614
3172.62164	1.45475
3170.69299	1.44402
3168.76435	1.43483
3166.83570	1.42723
3164.90706	1.42057
3162.97841	1.41391
3161.04977	1.40651
3159.12112	1.39793
3157.19247	1.38816
3155.26383	1.37763
3153.33518	1.36705
3151.40654	1.35718
3149.47789	1.34849
3147.54925	1.34101
3145.62060	1.33431
3143.69196	1.32770
3141.76331	1.32066
3139.83467	1.31317
3137.90602	1.30569
3135.97738	1.29882
3134.04873	1.29280
3132.12008	1.28727
3130.19144	1.28139
3128.26279	1.27424
3126.33415	1.26542
3124.40550	1.25528
3122.47686	1.24473
3120.54821	1.23468
3118.61957	1.22560
3116.69092	1.21736
3114.76228	1.20944
3112.83363	1.20135
3110.90499	1.19295
3108.97634	1.18449
3107.04769	1.17646
3105.11905	1.16918
3103.19040	1.16262
3101.26176	1.15637
3099.33311	1.14994
3097.40447	1.14303
3095.47582	1.13571
3093.54718	1.12843
3091.61853	1.12185
3089.68989	1.11643
3087.76124	1.11211
3085.83260	1.10828
3083.90395	1.10410
3081.97531	1.09889
3080.04666	1.09248
3078.11801	1.08527
3076.18937	1.07799
3074.26072	1.07128
3072.33208	1.06537
3070.40343	1.05991
3068.47479	1.05428
3066.54614	1.04784
3064.61750	1.04032
3062.68885	1.03193
3060.76021	1.02319
3058.83156	1.01472
3056.90292	1.00683
3054.97427	0.99940
3053.04562	0.99197
3051.11698	0.98407
3049.18833	0.97566
3047.25969	0.96724
3045.33104	0.95965
3043.40240	0.95354
3041.47375	0.94898
3039.54511	0.94532
3037.61646	0.94152
3035.68782	0.93667
3033.75917	0.93040
3031.83053	0.92301
3029.90188	0.91524
3027.97323	0.90790
3026.04459	0.90153
3024.11594	0.89622
3022.18730	0.89163
3020.25865	0.88720
3018.33001	0.88237
3016.40136	0.87694
3014.47272	0.87123
3012.54407	0.86602
3010.61543	0.86210
3008.68678	0.85988
3006.75814	0.85909
3004.82949	0.85875
3002.90084	0.85750
3000.97220	0.85423
2999.04355	0.84893
2997.11491	0.84275
2995.18626	0.83735
2993.25762	0.83407
2991.32897	0.83350
2989.40033	0.83529
2987.47168	0.83826
2985.54304	0.84124
2983.61439	0.84384
2981.68575	0.84640
2979.75710	0.84931
2977.82845	0.85266
2975.89981	0.85629
2973.97116	0.85990
2972.04252	0.86314
2970.11387	0.86586
2968.18523	0.86815
2966.25658	0.87001
2964.32794	0.87114
2962.39929	0.87126
2960.47065	0.87042
2958.54200	0.86898
2956.61336	0.86736
2954.68471	0.86593
2952.75607	0.86485
2950.82742	0.86412
2948.89877	0.86372
2946.97013	0.86389
2945.04148	0.86530
2943.11284	0.86872
2941.18419	0.87442
2939.25555	0.88191
2937.32690	0.88997
2935.39826	0.89720
2933.46961	0.90260
2931.54097	0.90594
2929.61232	0.90767
2927.68368	0.90833
2925.75503	0.90790
2923.82638	0.90561
2921.89774	0.90024
2919.96909	0.89067
2918.04045	0.87659
2916.11180	0.85877
2914.18316	0.83891
2912.25451	0.81912
2910.32587	0.80133
2908.39722	0.78685
2906.46858	0.77614
2904.53993	0.76874
2902.61129	0.76334
2900.68264	0.75832
2898.75399	0.75250
2896.82535	0.74548
2894.89670	0.73742
2892.96806	0.72880
2891.03941	0.72048
2889.11077	0.71335
2887.18212	0.70785
2885.25348	0.70401
2883.32483	0.70173
2881.39619	0.70076
2879.46754	0.70043
2877.53890	0.69984
2875.61025	0.69836
2873.68160	0.69569
2871.75296	0.69180
2869.82431	0.68704
2867.89567	0.68223
2865.96702	0.67840
2864.03838	0.67645
2862.10973	0.67688
2860.18109	0.67952
2858.25244	0.68328
2856.32380	0.68634
2854.39515	0.68676
2852.46651	0.68314
2850.53786	0.67487
2848.60922	0.66238
2846.68057	0.64711
2844.75192	0.63096
2842.82328	0.61561
2840.89463	0.60219
2838.96599	0.59122
2837.03734	0.58259
2835.10870	0.57574
2833.18005	0.57003
2831.25141	0.56495
2829.32276	0.56013
2827.39412	0.55544
2825.46547	0.55088
2823.53683	0.54639
2821.60818	0.54175
2819.67953	0.53688
2817.75089	0.53186
2815.82224	0.52684
2813.89360	0.52206
2811.96495	0.51801
2810.03631	0.51511
2808.10766	0.51325
2806.17902	0.51183
2804.25037	0.51010
2802.32173	0.50746
2800.39308	0.50354
2798.46444	0.49833
2796.53579	0.49233
2794.60714	0.48620
2792.67850	0.48047
2790.74985	0.47557
2788.82121	0.47187
2786.89256	0.46957
2784.96392	0.46848
2783.03527	0.46812
2781.10663	0.46811
2779.17798	0.46817
2777.24934	0.46809
2775.32069	0.46768
2773.39205	0.46672
2771.46340	0.46491
2769.53475	0.46195
2767.60611	0.45786
2765.67746	0.45312
2763.74882	0.44842
2761.82017	0.44429
2759.89153	0.44097
2757.96288	0.43845
2756.03424	0.43660
2754.10559	0.43538
2752.17695	0.43473
2750.24830	0.43441
2748.31966	0.43399
2746.39101	0.43297
2744.46236	0.43113
2742.53372	0.42860
2740.60507	0.42585
2738.67643	0.42339
2736.74778	0.42153
2734.81914	0.42033
2732.89049	0.41963
2730.96185	0.41912
2729.03320	0.41835
2727.10456	0.41692
2725.17591	0.41463
2723.24727	0.41135
2721.31862	0.40714
2719.38998	0.40232
2717.46133	0.39757
2715.53268	0.39360
2713.60404	0.39087
2711.67539	0.38947
2709.74675	0.38910
2707.81810	0.38907
2705.88946	0.38865
2703.96081	0.38748
2702.03217	0.38582
2700.10352	0.38427
2698.17488	0.38327
2696.24623	0.38277
2694.31759	0.38225
2692.38894	0.38107
2690.46029	0.37912
2688.53165	0.37685
2686.60300	0.37487
2684.67436	0.37358
2682.74571	0.37289
2680.81707	0.37223
2678.88842	0.37081
2676.95978	0.36825
2675.03113	0.36491
2673.10249	0.36148
2671.17384	0.35843
2669.24520	0.35594
2667.31655	0.35399
2665.38790	0.35234
2663.45926	0.35065
2661.53061	0.34865
2659.60197	0.34632
2657.67332	0.34377
2655.74468	0.34113
2653.81603	0.33863
2651.88739	0.33663
2649.95874	0.33532
2648.03010	0.33437
2646.10145	0.33300
2644.17281	0.33063
2642.24416	0.32732
2640.31551	0.32368
2638.38687	0.32054
2636.45822	0.31848
2634.52958	0.31730
2632.60093	0.31601
2630.67229	0.31375
2628.74364	0.31063
2626.81500	0.30758
2624.88635	0.30551
2622.95771	0.30485
2621.02906	0.30538
2619.10042	0.30616
2617.17177	0.30601
2615.24312	0.30459
2613.31448	0.30253
2611.38583	0.30053
2609.45719	0.29885
2607.52854	0.29735
2605.59990	0.29593
2603.67125	0.29457
2601.74261	0.29326
2599.81396	0.29204
2597.88532	0.29073
2595.95667	0.28876
2594.02803	0.28547
2592.09938	0.28033
2590.17074	0.27352
2588.24209	0.26634
2586.31344	0.26086
2584.38480	0.25890
2582.45615	0.26113
2580.52751	0.26696
2578.59886	0.27474
2576.67022	0.28195
2574.74157	0.28619
2572.81293	0.28659
2570.88428	0.28419
2568.95564	0.28098
2567.02699	0.27875
2565.09835	0.27848
2563.16970	0.28000
2561.24105	0.28206
2559.31241	0.28313
2557.38376	0.28225
2555.45512	0.27941
2553.52647	0.27531
2551.59783	0.27090
2549.66918	0.26706
2547.74054	0.26430
2545.81189	0.26257
2543.88325	0.26154
2541.95460	0.26084
2540.02596	0.26052
2538.09731	0.26098
2536.16866	0.26236
2534.24002	0.26402
2532.31137	0.26463
2530.38273	0.26280
2528.45408	0.25800
2526.52544	0.25138
2524.59679	0.24587
2522.66815	0.24470
2520.73950	0.24913
2518.81086	0.25765
2516.88221	0.26729
2514.95357	0.27514
2513.02492	0.27930
2511.09627	0.27941
2509.16763	0.27670
2507.23898	0.27288
2505.31034	0.26860
2503.38169	0.26352
2501.45305	0.25779
2499.52440	0.25254
2497.59576	0.24901
2495.66711	0.24786
2493.73847	0.24899
2491.80982	0.25153
2489.88118	0.25380
2487.95253	0.25442
2486.02389	0.25336
2484.09524	0.25181
2482.16659	0.25100
2480.23795	0.25144
2478.30930	0.25278
2476.38066	0.25415
2474.45201	0.25478
2472.52337	0.25475
2470.59472	0.25500
2468.66608	0.25646
2466.73743	0.25926
2464.80879	0.26266
2462.88014	0.26536
2460.95150	0.26631
2459.02285	0.26535
2457.09420	0.26345
2455.16556	0.26186
2453.23691	0.26150
2451.30827	0.26264
2449.37962	0.26464
2447.45098	0.26614
2445.52233	0.26600
2443.59369	0.26427
2441.66504	0.26176
2439.73640	0.25920
2437.80775	0.25704
2435.87911	0.25558
2433.95046	0.25460
2432.02181	0.25353
2430.09317	0.25233
2428.16452	0.25188
2426.23588	0.25313
2424.30723	0.25629
2422.37859	0.26088
2420.44994	0.26614
2418.52130	0.27111
2416.59265	0.27466
2414.66401	0.27592
2412.73536	0.27450
2410.80672	0.27044
2408.87807	0.26423
2406.94942	0.25705
2405.02078	0.25066
2403.09213	0.24668
2401.16349	0.24582
2399.23484	0.24771
2397.30620	0.25113
2395.37755	0.25452
2393.44891	0.25674
2391.52026	0.25753
2389.59162	0.25751
2387.66297	0.25751
2385.73433	0.25797
2383.80568	0.25875
2381.87703	0.25927
2379.94839	0.25883
2378.01974	0.25686
2376.09110	0.25306
2374.16245	0.24731
2372.23381	0.23974
2370.30516	0.23140
2368.37652	0.22457
2366.44787	0.22223
2364.51923	0.22682
2362.59058	0.23864
2360.66194	0.25491
2358.73329	0.27042
2356.80465	0.27985
2354.87600	0.28033
2352.94735	0.27259
2351.01871	0.26036
2349.09006	0.24832
2347.16142	0.23988
2345.23277	0.23585
2343.30413	0.23494
2341.37548	0.23503
2339.44684	0.23427
2337.51819	0.23181
2335.58955	0.22797
2333.66090	0.22395
2331.73226	0.22121
2329.80361	0.22096
2327.87496	0.22377
2325.94632	0.22910
2324.01767	0.23532
2322.08903	0.24022
2320.16038	0.24203
2318.23174	0.24011
2316.30309	0.23531
2314.37445	0.22959
2312.44580	0.22501
2310.51716	0.22272
2308.58851	0.22252
2306.65987	0.22328
2304.73122	0.22379
2302.80257	0.22349
2300.87393	0.22288
2298.94528	0.22297
2297.01664	0.22442
2295.08799	0.22700
2293.15935	0.22976
2291.23070	0.23171
2289.30206	0.23250
2287.37341	0.23274
2285.44477	0.23369
2283.51612	0.23639
2281.58748	0.24081
2279.65883	0.24558
2277.73018	0.24844
2275.80154	0.24731
2273.87289	0.24143
2271.94425	0.23203
2270.01560	0.22190
2268.08696	0.21413
2266.15831	0.21043
2264.22967	0.21010
2262.30102	0.21049
2260.37238	0.20880
2258.44373	0.20431
2256.51509	0.19882
2254.58644	0.19483
2252.65779	0.19351
2250.72915	0.19398
2248.80050	0.19407
2246.87186	0.19181
2244.94321	0.18715
2243.01457	0.18297
2241.08592	0.18299
2239.15728	0.18829
2237.22863	0.19627
2235.29999	0.20289
2233.37134	0.20542
2231.44270	0.20316
2229.51405	0.19701
2227.58541	0.18893
2225.65676	0.18083
2223.72811	0.17389
2221.79947	0.16902
2219.87082	0.16733
2217.94218	0.16996
2216.01353	0.17699
2214.08489	0.18616
2212.15624	0.19297
2210.22760	0.19316
2208.29895	0.18590
2206.37031	0.17414
2204.44166	0.16249
2202.51302	0.15523
2200.58437	0.15423
2198.65572	0.15743
2196.72708	0.16007
2194.79843	0.15811
2192.86979	0.15095
2190.94114	0.14141
2189.01250	0.13362
2187.08385	0.12976
2185.15521	0.12751
2183.22656	0.12133
2181.29792	0.10687
2179.36927	0.08429
2177.44063	0.05888
2175.51198	0.03882
2173.58333	0.03060
2171.65469	0.03490
2169.72604	0.04657
2167.79740	0.05812
2165.86875	0.06323
2163.94011	0.05949
2162.01146	0.04888
2160.08282	0.03595
2158.15417	0.02520
2156.22553	0.01887
2154.29688	0.01654
2152.36824	0.01581
2150.43959	0.01390
2148.51094	0.00953
2146.58230	0.00374
2144.65365	0.00000
2142.72501	0.00335
2140.79636	0.01730
2138.86772	0.04085
2136.93907	0.06902
2135.01043	0.09594
2133.08178	0.11698
2131.15314	0.12972
2129.22449	0.13494
2127.29585	0.13652
2125.36720	0.13895
2123.43856	0.14477
2121.50991	0.15364
2119.58126	0.16340
2117.65262	0.17163
2115.72397	0.17636
2113.79533	0.17634
2111.86668	0.17128
2109.93804	0.16173
2108.00939	0.14866
2106.08075	0.13324
2104.15210	0.11787
2102.22346	0.10699
2100.29481	0.10529
2098.36617	0.11489
2096.43752	0.13437
2094.50887	0.15937
2092.58023	0.18400
2090.65158	0.20291
2088.72294	0.21330
2086.79429	0.21547
2084.86565	0.21141
2082.93700	0.20319
2081.00836	0.19225
2079.07971	0.17933
2077.15107	0.16459
2075.22242	0.14779
2073.29378	0.12849
2071.36513	0.10656
2069.43648	0.08279
2067.50784	0.05895
2065.57919	0.03739
2063.65055	0.02087
2061.72190	0.01212
2059.79326	0.01294
2057.86461	0.02340
2055.93597	0.04165
2054.00732	0.06418
2052.07868	0.08581
2050.15003	0.10037
2048.22139	0.10309
2046.29274	0.09356
2044.36409	0.07683
2042.43545	0.06179
2040.50680	0.05737
2038.57816	0.06845
2036.64951	0.09337
2034.72087	0.12485
2032.79222	0.15385
2030.86358	0.17403
2028.93493	0.18408
2027.00629	0.18688
2025.07764	0.18627
2023.14900	0.18434
2021.22035	0.18130
2019.29170	0.17716
2017.36306	0.17297
2015.43441	0.17108
2013.50577	0.17468
2011.57712	0.18623
2009.64848	0.20514
2007.71983	0.22673
2005.79119	0.24372
2003.86254	0.24910
2001.93390	0.23842
2000.00525	0.21135
1998.07661	0.17254
1996.14796	0.13040
1994.21932	0.09358
1992.29067	0.06740
1990.36202	0.05261
1988.43338	0.04656
1986.50473	0.04500
1984.57609	0.04481
1982.64744	0.04514
1980.71880	0.04695
1978.79015	0.05220
1976.86151	0.06228
1974.93286	0.07702
1973.00422	0.09460
1971.07557	0.11196
1969.14693	0.12504
1967.21828	0.12978
1965.28963	0.12452
1963.36099	0.11194
1961.43234	0.09838
1959.50370	0.09076
1957.57505	0.09351
1955.64641	0.10688
1953.71776	0.12684
1951.78912	0.14726
1949.86047	0.16344
1947.93183	0.17426
1946.00318	0.18152
1944.07454	0.18755
1942.14589	0.19343
1940.21724	0.19844
1938.28860	0.20059
1936.35995	0.19795
1934.43131	0.19013
1932.50266	0.17894
1930.57402	0.16782
1928.64537	0.16063
1926.71673	0.16000
1924.78808	0.16609
1922.85944	0.17621
1920.93079	0.18590
1919.00215	0.19086
1917.07350	0.18873
1915.14485	0.17986
1913.21621	0.16699
1911.28756	0.15391
1909.35892	0.14387
1907.43027	0.13861
1905.50163	0.13831
1903.57298	0.14201
1901.64434	0.14808
1899.71569	0.15476
1897.78705	0.16059
1895.85840	0.16460
1893.92976	0.16626
1892.00111	0.16547
1890.07246	0.16276
1888.14382	0.15929
1886.21517	0.15654
1884.28653	0.15587
1882.35788	0.15801
1880.42924	0.16263
1878.50059	0.16837
1876.57195	0.17338
1874.64330	0.17627
1872.71466	0.17681
1870.78601	0.17587
1868.85737	0.17484
1866.92872	0.17480
1865.00008	0.17596
1863.07143	0.17752
1861.14278	0.17814
1859.21414	0.17671
1857.28549	0.17302
1855.35685	0.16792
1853.42820	0.16289
1851.49956	0.15935
1849.57091	0.15811
1847.64227	0.15897
1845.71362	0.16094
1843.78498	0.16277
1841.85633	0.16358
1839.92769	0.16318
1837.99904	0.16195
1836.07039	0.16064
1834.14175	0.16000
1832.21310	0.16053
1830.28446	0.16231
1828.35581	0.16504
1826.42717	0.16814
1824.49852	0.17089
1822.56988	0.17268
1820.64123	0.17323
1818.71259	0.17267
1816.78394	0.17143
1814.85530	0.17007
1812.92665	0.16918
1810.99800	0.16921
1809.06936	0.17043
1807.14071	0.17290
1805.21207	0.17653
1803.28342	0.18106
1801.35478	0.18603
1799.42613	0.19082
1797.49749	0.19493
1795.56884	0.19804
1793.64020	0.19995
1791.71155	0.20057
1789.78291	0.20000
1787.85426	0.19860
1785.92561	0.19701
1783.99697	0.19610
1782.06832	0.19694
1780.13968	0.20034
1778.21103	0.20643
1776.28239	0.21440
1774.35374	0.22271
1772.42510	0.22968
1770.49645	0.23415
1768.56781	0.23594
1766.63916	0.23588
1764.71052	0.23538
1762.78187	0.23591
1760.85322	0.23850
1758.92458	0.24360
1756.99593	0.25113
1755.06729	0.26059
1753.13864	0.27121
1751.21000	0.28208
1749.28135	0.29246
1747.35271	0.30223
1745.42406	0.31204
1743.49542	0.32296
1741.56677	0.33571
1739.63813	0.35006
1737.70948	0.36455
1735.78084	0.37699
1733.85219	0.38539
1731.92354	0.38926
1729.99490	0.39019
1728.06625	0.39129
1726.13761	0.39578
1724.20896	0.40555
1722.28032	0.42035
1720.35167	0.43783
1718.42303	0.45461
1716.49438	0.46791
1714.56574	0.47693
1712.63709	0.48323
1710.70845	0.49006
1708.77980	0.50092
1706.85115	0.51812
1704.92251	0.54173
1702.99386	0.56950
1701.06522	0.59781
1699.13657	0.62334
1697.20793	0.64471
1695.27928	0.66308
1693.35064	0.68144
1691.42199	0.70293
1689.49335	0.72931
1687.56470	0.76008
1685.63606	0.79292
1683.70741	0.82505
1681.77876	0.85482
1679.85012	0.88228
1677.92147	0.90864
1675.99283	0.93510
1674.06418	0.96208
1672.13554	0.98907
1670.20689	1.01502
1668.27825	1.03915
1666.34960	1.06172
1664.42096	1.08413
1662.49231	1.10801
1660.56367	1.13417
1658.63502	1.16209
1656.70637	1.18978
1654.77773	1.21412
1652.84908	1.23188
1650.92044	1.24118
1648.99179	1.24242
1647.06315	1.23801
1645.13450	1.23131
1643.20586	1.22553
1641.27721	1.22254
1639.34857	1.22220
1637.41992	1.22263
1635.49128	1.22140
1633.56263	1.21669
1631.63399	1.20800
1629.70534	1.19612
1627.77669	1.18270
1625.84805	1.16946
1623.91940	1.15748
1621.99076	1.14693
1620.06211	1.13722
1618.13347	1.12755
1616.20482	1.11733
1614.27618	1.10664
1612.34753	1.09623
1610.41889	1.08715
1608.49024	1.08020
1606.56160	1.07551
1604.63295	1.07236
1602.70430	1.06946
1600.77566	1.06535
1598.84701	1.05898
1596.91837	1.05003
1594.98972	1.03879
1593.06108	1.02597
1591.13243	1.01242
1589.20379	0.99904
1587.27514	0.98674
1585.34650	0.97614
1583.41785	0.96738
1581.48921	0.95995
1579.56056	0.95277
1577.63191	0.94436
1575.70327	0.93354
1573.77462	0.92024
1571.84598	0.90596
1569.91733	0.89329
1567.98869	0.88479
1566.06004	0.88167
1564.13140	0.88292
1562.20275	0.88529
1560.27411	0.88432
1558.34546	0.87620
1556.41682	0.85970
1554.48817	0.83672
1552.55952	0.81150
1550.63088	0.78875
1548.70223	0.77168
1546.77359	0.76072
1544.84494	0.75345
1542.91630	0.74589
1540.98765	0.73435
1539.05901	0.71720
1537.13036	0.69550
1535.20172	0.67254
1533.27307	0.65236
1531.34443	0.63822
1529.41578	0.63152
1527.48713	0.63136
1525.55849	0.63493
1523.62984	0.63854
1521.70120	0.63901
1519.77255	0.63470
1517.84391	0.62583
1515.91526	0.61392
1513.98662	0.60081
1512.05797	0.58766
1510.12933	0.57448
1508.20068	0.56036
1506.27204	0.54420
1504.34339	0.52571
1502.41475	0.50586
1500.48610	0.48635
1498.55745	0.46875
1496.62881	0.45394
1494.70016	0.44201
1492.77152	0.43237
1490.84287	0.42421
1488.91423	0.41699
1486.98558	0.41091
1485.05694	0.40694
1483.12829	0.40642
1481.19965	0.41049
1479.27100	0.41965
1477.34236	0.43337
1475.41371	0.45014
1473.48506	0.46790
1471.55642	0.48491
1469.62777	0.50041
1467.69913	0.51470
1465.77048	0.52843
1463.84184	0.54188
1461.91319	0.55454
1459.98455	0.56509
1458.05590	0.57175
1456.12726	0.57310
1454.19861	0.56888
1452.26997	0.56026
1450.34132	0.54941
1448.41267	0.53891
1446.48403	0.53105
1444.55538	0.52734
1442.62674	0.52810
1440.69809	0.53252
1438.76945	0.53922
1436.84080	0.54679
1434.91216	0.55441
1432.98351	0.56221
1431.05487	0.57112
1429.12622	0.58232
1427.19758	0.59652
1425.26893	0.61341
1423.34028	0.63163
1421.41164	0.64927
1419.48299	0.66463
1417.55435	0.67696
1415.62570	0.68673
1413.69706	0.69525
1411.76841	0.70399
1409.83977	0.71386
1407.91112	0.72492
1405.98248	0.73643
1404.05383	0.74719
1402.12519	0.75605
1400.19654	0.76232
1398.26789	0.76585
1396.33925	0.76693
1394.41060	0.76603
1392.48196	0.76369
1390.55331	0.76034
1388.62467	0.75626
1386.69602	0.75162
1384.76738	0.74659
1382.83873	0.74137
1380.91009	0.73611
1378.98144	0.73084
1377.05280	0.72542
1375.12415	0.71956
1373.19551	0.71299
1371.26686	0.70567
1369.33821	0.69785
1367.40957	0.68987
1365.48092	0.68196
1363.55228	0.67408
1361.62363	0.66591
1359.69499	0.65708
1357.76634	0.64741
1355.83770	0.63705
1353.90905	0.62646
1351.98041	0.61623
1350.05176	0.60680
1348.12312	0.59839
1346.19447	0.59097
1344.26582	0.58431
1342.33718	0.57810
1340.40853	0.57199
1338.47989	0.56576
1336.55124	0.55940
1334.62260	0.55307
1332.69395	0.54705
1330.76531	0.54157
1328.83666	0.53671
1326.90802	0.53237
1324.97937	0.52832
1323.05073	0.52435
1321.12208	0.52036
1319.19343	0.51636
1317.26479	0.51239
1315.33614	0.50846
1313.40750	0.50454
1311.47885	0.50058
1309.55021	0.49664
1307.62156	0.49284
1305.69292	0.48936
1303.76427	0.48642
1301.83563	0.48421
1299.90698	0.48294
1297.97834	0.48281
1296.04969	0.48396
1294.12104	0.48644
1292.19240	0.49011
1290.26375	0.49462
1288.33511	0.49945
1286.40646	0.50410
1284.47782	0.50824
1282.54917	0.51179
1280.62053	0.51485
1278.69188	0.51769
1276.76324	0.52062
1274.83459	0.52396
1272.90595	0.52791
1270.97730	0.53258
1269.04866	0.53781
1267.12001	0.54308
1265.19136	0.54755
1263.26272	0.55031
1261.33407	0.55076
1259.40543	0.54889
1257.47678	0.54533
1255.54814	0.54118
1253.61949	0.53757
1251.69085	0.53524
1249.76220	0.53437
1247.83356	0.53470
1245.90491	0.53575
1243.97627	0.53710
1242.04762	0.53842
1240.11897	0.53950
1238.19033	0.54017
1236.26168	0.54020
1234.33304	0.53939
1232.40439	0.53763
1230.47575	0.53506
1228.54710	0.53201
1226.61846	0.52894
1224.68981	0.52633
1222.76117	0.52450
1220.83252	0.52352
1218.90388	0.52317
1216.97523	0.52297
1215.04658	0.52235
1213.11794	0.52082
1211.18929	0.51819
1209.26065	0.51472
1207.33200	0.51112
1205.40336	0.50819
1203.47471	0.50643
1201.54607	0.50602
1199.61742	0.50684
1197.68878	0.50858
1195.76013	0.51102
1193.83149	0.51449
1191.90284	0.51980
1189.97419	0.52774
1188.04555	0.53877
1186.11690	0.55330
1184.18826	0.57138
1182.25961	0.59248
1180.33097	0.61564
1178.40232	0.63996
1176.47368	0.66487
1174.54503	0.69021
1172.61639	0.71643
1170.68774	0.74438
1168.75910	0.77460
1166.83045	0.80691
1164.90180	0.84054
1162.97316	0.87435
1161.04451	0.90725
1159.11587	0.93865
1157.18722	0.96831
1155.25858	0.99624
1153.32993	1.02276
1151.40129	1.04882
1149.47264	1.07586
1147.54400	1.10535
1145.61535	1.13838
1143.68671	1.17521
1141.75806	1.21503
1139.82942	1.25637
1137.90077	1.29795
1135.97212	1.33912
1134.04348	1.37967
1132.11483	1.41951
1130.18619	1.45850
1128.25754	1.49632
1126.32890	1.53252
1124.40025	1.56661
1122.47161	1.59836
1120.54296	1.62775
1118.61432	1.65483
1116.68567	1.67944
1114.75703	1.70159
1112.82838	1.72182
1110.89973	1.74103
1108.97109	1.75995
1107.04244	1.77901
1105.11380	1.79834
1103.18515	1.81757
1101.25651	1.83588
1099.32786	1.85271
1097.39922	1.86831
1095.47057	1.88334
1093.54193	1.89840
1091.61328	1.91376
1089.68464	1.92912
1087.75599	1.94358
1085.82734	1.95583
1083.89870	1.96448
1081.97005	1.96822
1080.04141	1.96594
1078.11276	1.95708
1076.18412	1.94169
1074.25547	1.92043
1072.32683	1.89464
1070.39818	1.86608
1068.46954	1.83607
1066.54089	1.80494
1064.61225	1.77241
1062.68360	1.73813
1060.75495	1.70183
1058.82631	1.66349
1056.89766	1.62376
1054.96902	1.58383
1053.04037	1.54481
1051.11173	1.50745
1049.18308	1.47215
1047.25444	1.43888
1045.32579	1.40705
1043.39715	1.37612
1041.46850	1.34620
1039.53986	1.31788
1037.61121	1.29173
1035.68256	1.26795
1033.75392	1.24621
1031.82527	1.22533
1029.89663	1.20374
1027.96798	1.18051
1026.03934	1.15575
1024.11069	1.12992
1022.18205	1.10328
1020.25340	1.07603
1018.32476	1.04857
1016.39611	1.02141
1014.46747	0.99528
1012.53882	0.97138
1010.61018	0.95097
1008.68153	0.93464
1006.75288	0.92201
1004.82424	0.91226
1002.89559	0.90443
1000.96695	0.89773
999.03830	0.89201
997.10966	0.88772
995.18101	0.88537
993.25237	0.88493
991.32372	0.88568
989.39508	0.88615
987.46643	0.88418
985.53779	0.87756
983.60914	0.86488
981.68049	0.84589
979.75185	0.82132
977.82320	0.79261
975.89456	0.76144
973.96591	0.72900
972.03727	0.69557
970.10862	0.66101
968.17998	0.62559
966.25133	0.59062
964.32269	0.55807
962.39404	0.52971
960.46540	0.50640
958.53675	0.48766
956.60810	0.47198
954.67946	0.45777
952.75081	0.44433
950.82217	0.43191
948.89352	0.42096
946.96488	0.41155
945.03623	0.40327
943.10759	0.39553
941.17894	0.38777
939.25030	0.37970
937.32165	0.37119
935.39301	0.36225
933.46436	0.35321
931.53571	0.34491
929.60707	0.33857
927.67842	0.33536
925.74978	0.33571
923.82113	0.33877
921.89249	0.34232
919.96384	0.34384
918.03520	0.34200
916.10655	0.33763
914.17791	0.33307
912.24926	0.33078
910.32062	0.33199
908.39197	0.33631
906.46333	0.34211
904.53468	0.34737
902.60603	0.35092
900.67739	0.35332
898.74874	0.35632
896.82010	0.36119
894.89145	0.36799
892.96281	0.37625
891.03416	0.38547
889.10552	0.39483
887.17687	0.40301
885.24823	0.40908
883.31958	0.41283
881.39094	0.41426
879.46229	0.41377
877.53364	0.41278
875.60500	0.41325
873.67635	0.41626
871.74771	0.42127
869.81906	0.42679
867.89042	0.43126
865.96177	0.43358
864.03313	0.43377
862.10448	0.43290
860.17584	0.43220
858.24719	0.43194
856.31855	0.43143
854.38990	0.42992
852.46125	0.42735
850.53261	0.42453
848.60396	0.42276
846.67532	0.42300
844.74667	0.42497
842.81803	0.42694
840.88938	0.42680
838.96074	0.42351
837.03209	0.41742
835.10345	0.40964
833.17480	0.40139
831.24616	0.39364
829.31751	0.38699
827.38886	0.38175
825.46022	0.37824
823.53157	0.37690
821.60293	0.37782
819.67428	0.38042
817.74564	0.38376
815.81699	0.38690
813.88835	0.38896
811.95970	0.38935
810.03106	0.38786
808.10241	0.38470
806.17377	0.38039
804.24512	0.37591
802.31647	0.37249
800.38783	0.37093
798.45918	0.37111
796.53054	0.37244
794.60189	0.37487
792.67325	0.37886
790.74460	0.38458
788.81596	0.39124
786.88731	0.39702
784.95867	0.39959
783.03002	0.39722
781.10138	0.39010
779.17273	0.38070
777.24409	0.37215
775.31544	0.36609
773.38679	0.36231
771.45815	0.35986
769.52950	0.35831
767.60086	0.35834
765.67221	0.36129
763.74357	0.36766
761.81492	0.37581
759.88628	0.38231
757.95763	0.38414
756.02899	0.38086
754.10034	0.37491
752.17170	0.37026
750.24305	0.37043
748.31440	0.37678
746.38576	0.38842
744.45711	0.40296
742.52847	0.41778
740.59982	0.43068
738.67118	0.44012
736.74253	0.44523
734.81389	0.44581
732.88524	0.44259
730.95660	0.43741
729.02795	0.43273
727.09931	0.43039
725.17066	0.43078
723.24201	0.43315
721.31337	0.43652
719.38472	0.44007
717.45608	0.44330
715.52743	0.44627
713.59879	0.44952
711.67014	0.45358
709.74150	0.45858
707.81285	0.46434
705.88421	0.47051
703.95556	0.47639
702.02692	0.48096
700.09827	0.48338
698.16962	0.48333
696.24098	0.48127
694.31233	0.47828
692.38369	0.47568
690.45504	0.47468
688.52640	0.47617
686.59775	0.48042
684.66911	0.48683
682.74046	0.49397
680.81182	0.50038
678.88317	0.50546
676.95453	0.50936
675.02588	0.51262
673.09723	0.51583
671.16859	0.51897
669.23994	0.52109
667.31130	0.52080
665.38265	0.51776
663.45401	0.51329
661.52536	0.50942
659.59672	0.50799
657.66807	0.51014
655.73943	0.51582
653.81078	0.52377
651.88214	0.53216
649.95349	0.53962
648.02485	0.54553
646.09620	0.54969
644.16755	0.55226
642.23891	0.55376
640.31026	0.55498
638.38162	0.55699
636.45297	0.56121
634.52433	0.56877
632.59568	0.57839
630.66704	0.58457
628.73839	0.57886
626.80975	0.55421
624.88110	0.50939
622.95246	0.45212
621.02381	0.39975
619.09516	0.37467
617.16652	0.39370
615.23787	0.45841
613.30923	0.55333
611.38058	0.65169
609.45194	0.72465
607.52329	0.75167
605.59465	0.72930
603.66600	0.67229
601.73736	0.60549
599.80871	0.55256
597.88007	0.52758
595.95142	0.53192
594.02277	0.55617
592.09413	0.58633
590.16548	0.61103
588.23684	0.62598
586.30819	0.63346
584.37955	0.63880
582.45090	0.64623
580.52226	0.65693
578.59361	0.66938
576.66497	0.68102
574.73632	0.68994
572.80768	0.69600
570.87903	0.70072
568.95038	0.70632
567.02174	0.71458
565.09309	0.72601
563.16445	0.73960
561.23580	0.75324
559.30716	0.76457
557.37851	0.77201
555.44987	0.77562
553.52122	0.77723
551.59258	0.77978
549.66393	0.78584
547.73529	0.79637
545.80664	0.81013
543.87800	0.82426
541.94935	0.83548
540.02070	0.84131
538.09206	0.84084
536.16341	0.83464
534.23477	0.82424
532.30612	0.81140
530.37748	0.79764
528.44883	0.78420
526.52019	0.77194
524.59154	0.76104
522.66290	0.75065
520.73425	0.73898
518.80561	0.72378
516.87696	0.70311
514.94831	0.67615
513.01967	0.64378
511.09102	0.60836
509.16238	0.57299
507.23373	0.54072
505.30509	0.51426
503.37644	0.49559
501.44780	0.48554
499.51915	0.48321
497.59051	0.48599
495.66186	0.49015
493.73322	0.49180
491.80457	0.48829
489.87592	0.47937
487.94728	0.46736
486.01863	0.45587
484.08999	0.44796
482.16134	0.44484
480.23270	0.44562
478.30405	0.44793
476.37541	0.44935
474.44676	0.44866
472.51812	0.44648
470.58947	0.44460
468.66083	0.44480
466.73218	0.44775
464.80353	0.45260
462.87489	0.45741
460.94624	0.46009
459.01760	0.45932
457.08895	0.45498
455.16031	0.44804
453.23166	0.44008
451.30302	0.43248
449.37437	0.42578
447.44573	0.41972
445.51708	0.41345
443.58844	0.40582
441.65979	0.39576
439.73114	0.38277
437.80250	0.36723
435.87385	0.35049
433.94521	0.33474
432.01656	0.32263
430.08792	0.31638
428.15927	0.31665
426.23063	0.32201
424.30198	0.32925
422.37334	0.33432
420.44469	0.33387
418.51605	0.32632
416.58740	0.31239
414.65876	0.29446
412.73011	0.27562
410.80146	0.25871
408.87282	0.24583
406.94417	0.23807
405.01553	0.23556
403.08688	0.23748
401.15824	0.24211
399.22959	0.24721
397.30095	0.25045
395.37230	0.24984
393.44366	0.24397
391.51501	0.23251
389.58637	0.21661
387.65772	0.19878
385.72907	0.18218
383.80043	0.16949
381.87178	0.16199
379.94314	0.15899
378.01449	0.15824
376.08585	0.15741
374.15720	0.15560
372.22856	0.15374
370.29991	0.15359
368.37127	0.15639
366.44262	0.16210
364.51398	0.16941
362.58533	0.17615
360.65668	0.18025
358.72804	0.18050
356.79939	0.17669
354.87075	0.16932
352.94210	0.15951
351.01346	0.14892
349.08481	0.13931
347.15617	0.13190
345.22752	0.12684
343.29888	0.12325
341.37023	0.11996
339.44159	0.11667
337.51294	0.11436
335.58429	0.11474
333.65565	0.11909
331.72700	0.12714
329.79836	0.13639
327.86971	0.14269
325.94107	0.14215
324.01242	0.13311
322.08378	0.11675
320.15513	0.09660
318.22649	0.07663
316.29784	0.06109
314.36920	0.05315
312.44055	0.05441
310.51190	0.06464
308.58326	0.08170
306.65461	0.10153
304.72597	0.11899
302.79732	0.12952
300.86868	0.13078
298.94003	0.12340
297.01139	0.11028
295.08274	0.09536
293.15410	0.08297
291.22545	0.07749
289.29681	0.08269
287.36816	0.10064
285.43952	0.13028
283.51087	0.16635
281.58222	0.20001
279.65358	0.22197
277.72493	0.22686
275.79629	0.21567
273.86764	0.19471
271.93900	0.17223
270.01035	0.15502
268.08171	0.14643
266.15306	0.14651
264.22442	0.15375
262.29577	0.16693
260.36713	0.18553
258.43848	0.20876
256.50983	0.23465
254.58119	0.25981
252.65254	0.28010
250.72390	0.29170
248.79525	0.29227
246.86661	0.28157
244.93796	0.26168
243.00932	0.23700
241.08067	0.21369
239.15203	0.19844
237.22338	0.19688
235.29474	0.21202
233.36609	0.24309
231.43744	0.28493
229.50880	0.32911
227.58015	0.36712
225.65151	0.39407
223.72286	0.41022
221.79422	0.41935
219.86557	0.42560
217.93693	0.43084
216.00828	0.43421
214.07964	0.43410
212.15099	0.43138
210.22235	0.43073
208.29370	0.43817
206.36505	0.45645
204.43641	0.48230
202.50776	0.50811
200.57912	0.52675
198.65047	0.53544
196.72183	0.53614
194.79318	0.53310
192.86454	0.52960
190.93589	0.52605
189.00725	0.52100
187.07860	0.51501
185.14996	0.51330
183.22131	0.52343
181.29267	0.55028
179.36402	0.59269
177.43537	0.64328
175.50673	0.69070
173.57808	0.72445
171.64944	0.74079
169.72079	0.74473
167.79215	0.74665
165.86350	0.75812
163.93486	0.79084
162.00621	0.88191
160.07757	1.00426
158.14892	1.13143
156.22028	1.24129
154.29163	1.24129
152.36298	1.24129
150.43434	1.24129
148.50569	1.24129
