4497.60101	0.02794
4495.67236	0.02794
4493.74372	0.02794
4491.81507	0.02794
4489.88643	0.02794
4487.95778	0.03585
4486.02914	0.04504
4484.10049	0.05313
4482.17185	0.05742
4480.24320	0.05569
4478.31455	0.04993
4476.38591	0.04299
4474.45726	0.03757
4472.52862	0.03565
4470.59997	0.03795
4468.67133	0.04351
4466.74268	0.05034
4464.81404	0.05647
4462.88539	0.06052
4460.95675	0.06176
4459.02810	0.06010
4457.09946	0.05613
4455.17081	0.05068
4453.24216	0.04433
4451.31352	0.03759
4449.38487	0.03137
4447.45623	0.02693
4445.52758	0.02505
4443.59894	0.02561
4441.67029	0.02821
4439.74165	0.03278
4437.81300	0.03901
4435.88436	0.04592
4433.95571	0.05247
4432.02707	0.05789
4430.09842	0.06110
4428.16978	0.06089
4426.24113	0.05726
4424.31248	0.05178
4422.38384	0.04650
4420.45519	0.04284
4418.52655	0.04144
4416.59790	0.04209
4414.66926	0.04375
4412.74061	0.04548
4410.81197	0.04695
4408.88332	0.04804
4406.95468	0.04840
4405.02603	0.04763
4403.09739	0.04546
4401.16874	0.04186
4399.24009	0.03737
4397.31145	0.03318
4395.38280	0.03043
4393.45416	0.02942
4391.52551	0.02965
4389.59687	0.03027
4387.66822	0.03081
4385.73958	0.03151
4383.81093	0.03268
4381.88229	0.03399
4379.95364	0.03471
4378.02500	0.03459
4376.09635	0.03384
4374.16770	0.03270
4372.23906	0.03167
4370.31041	0.03150
4368.38177	0.03231
4366.45312	0.03320
4364.52448	0.03332
4362.59583	0.03282
4360.66719	0.03248
4358.73854	0.03262
4356.80990	0.03327
4354.88125	0.03469
4352.95261	0.03722
4351.02396	0.04049
4349.09531	0.04347
4347.16667	0.04543
4345.23802	0.04624
4343.30938	0.04577
4341.38073	0.04398
4339.45209	0.04154
4337.52344	0.03936
4335.59480	0.03756
4333.66615	0.03567
4331.73751	0.03401
4329.80886	0.03374
4327.88022	0.03553
4325.95157	0.03887
4324.02292	0.04260
4322.09428	0.04546
4320.16563	0.04661
4318.23699	0.04621
4316.30834	0.04553
4314.37970	0.04579
4312.45105	0.04666
4310.52241	0.04648
4308.59376	0.04386
4306.66512	0.03897
4304.73647	0.03333
4302.80783	0.02902
4300.87918	0.02782
4298.95054	0.03007
4297.02189	0.03440
4295.09324	0.03867
4293.16460	0.04129
4291.23595	0.04164
4289.30731	0.03971
4287.37866	0.03607
4285.45002	0.03210
4283.52137	0.02938
4281.59273	0.02882
4279.66408	0.03034
4277.73544	0.03306
4275.80679	0.03593
4273.87815	0.03830
4271.94950	0.04016
4270.02085	0.04183
4268.09221	0.04320
4266.16356	0.04339
4264.23492	0.04126
4262.30627	0.03642
4260.37763	0.03007
4258.44898	0.02462
4256.52034	0.02216
4254.59169	0.02316
4252.66305	0.02648
4250.73440	0.03021
4248.80576	0.03278
4246.87711	0.03358
4244.94846	0.03305
4243.01982	0.03220
4241.09117	0.03162
4239.16253	0.03101
4237.23388	0.02986
4235.30524	0.02812
4233.37659	0.02623
4231.44795	0.02476
4229.51930	0.02422
4227.59066	0.02502
4225.66201	0.02712
4223.73337	0.03001
4221.80472	0.03303
4219.87607	0.03565
4217.94743	0.03781
4216.01878	0.03984
4214.09014	0.04199
4212.16149	0.04407
4210.23285	0.04586
4208.30420	0.04715
4206.37556	0.04742
4204.44691	0.04595
4202.51827	0.04260
4200.58962	0.03777
4198.66098	0.03201
4196.73233	0.02633
4194.80368	0.02241
4192.87504	0.02160
4190.94639	0.02387
4189.01775	0.02806
4187.08910	0.03243
4185.16046	0.03507
4183.23181	0.03487
4181.30317	0.03253
4179.37452	0.02991
4177.44588	0.02839
4175.51723	0.02842
4173.58859	0.02995
4171.65994	0.03257
4169.73130	0.03545
4167.80265	0.03780
4165.87400	0.03936
4163.94536	0.04008
4162.01671	0.03997
4160.08807	0.03931
4158.15942	0.03895
4156.23078	0.03993
4154.30213	0.04271
4152.37349	0.04653
4150.44484	0.04977
4148.51620	0.05114
4146.58755	0.05039
4144.65891	0.04814
4142.73026	0.04548
4140.80161	0.04370
4138.87297	0.04347
4136.94432	0.04423
4135.01568	0.04475
4133.08703	0.04430
4131.15839	0.04305
4129.22974	0.04149
4127.30110	0.03999
4125.37245	0.03894
4123.44381	0.03857
4121.51516	0.03854
4119.58652	0.03824
4117.65787	0.03729
4115.72922	0.03574
4113.80058	0.03375
4111.87193	0.03137
4109.94329	0.02869
4108.01464	0.02606
4106.08600	0.02371
4104.15735	0.02181
4102.22871	0.02080
4100.30006	0.02132
4098.37142	0.02357
4096.44277	0.02690
4094.51413	0.03020
4092.58548	0.03251
4090.65683	0.03319
4088.72819	0.03230
4086.79954	0.03097
4084.87090	0.03068
4082.94225	0.03191
4081.01361	0.03383
4079.08496	0.03515
4077.15632	0.03490
4075.22767	0.03260
4073.29903	0.02879
4071.37038	0.02515
4069.44174	0.02361
4067.51309	0.02507
4065.58444	0.02925
4063.65580	0.03511
4061.72715	0.04110
4059.79851	0.04560
4057.86986	0.04753
4055.94122	0.04672
4054.01257	0.04378
4052.08393	0.03984
4050.15528	0.03620
4048.22664	0.03379
4046.29799	0.03296
4044.36935	0.03363
4042.44070	0.03524
4040.51206	0.03694
4038.58341	0.03812
4036.65476	0.03874
4034.72612	0.03904
4032.79747	0.03900
4030.86883	0.03844
4028.94018	0.03702
4027.01154	0.03434
4025.08289	0.03014
4023.15425	0.02489
4021.22560	0.01982
4019.29696	0.01636
4017.36831	0.01564
4015.43967	0.01765
4013.51102	0.02173
4011.58237	0.02654
4009.65373	0.03044
4007.72508	0.03228
4005.79644	0.03192
4003.86779	0.03006
4001.93915	0.02771
4000.01050	0.02595
3998.08186	0.02578
3996.15321	0.02767
3994.22457	0.03142
3992.29592	0.03638
3990.36728	0.04170
3988.43863	0.04637
3986.50998	0.04932
3984.58134	0.04984
3982.65269	0.04788
3980.72405	0.04397
3978.79540	0.03906
3976.86676	0.03434
3974.93811	0.03098
3973.00947	0.02979
3971.08082	0.03097
3969.15218	0.03415
3967.22353	0.03848
3965.29489	0.04297
3963.36624	0.04670
3961.43759	0.04904
3959.50895	0.04976
3957.58030	0.04902
3955.65166	0.04720
3953.72301	0.04475
3951.79437	0.04210
3949.86572	0.03956
3947.93708	0.03734
3946.00843	0.03558
3944.07979	0.03439
3942.15114	0.03387
3940.22250	0.03398
3938.29385	0.03439
3936.36521	0.03461
3934.43656	0.03420
3932.50791	0.03307
3930.57927	0.03162
3928.65062	0.03045
3926.72198	0.03001
3924.79333	0.03027
3922.86469	0.03073
3920.93604	0.03070
3919.00740	0.02989
3917.07875	0.02855
3915.15011	0.02741
3913.22146	0.02719
3911.29282	0.02827
3909.36417	0.03063
3907.43552	0.03394
3905.50688	0.03776
3903.57823	0.04159
3901.64959	0.04480
3899.72094	0.04665
3897.79230	0.04644
3895.86365	0.04391
3893.93501	0.03947
3892.00636	0.03407
3890.07772	0.02883
3888.14907	0.02466
3886.22043	0.02198
3884.29178	0.02082
3882.36313	0.02099
3880.43449	0.02229
3878.50584	0.02457
3876.57720	0.02753
3874.64855	0.03074
3872.71991	0.03375
3870.79126	0.03614
3868.86262	0.03755
3866.93397	0.03770
3865.00533	0.03628
3863.07668	0.03319
3861.14804	0.02881
3859.21939	0.02429
3857.29074	0.02125
3855.36210	0.02110
3853.43345	0.02433
3851.50481	0.03003
3849.57616	0.03619
3847.64752	0.04063
3845.71887	0.04209
3843.79023	0.04079
3841.86158	0.03811
3839.93294	0.03582
3838.00429	0.03520
3836.07565	0.03645
3834.14700	0.03877
3832.21835	0.04091
3830.28971	0.04181
3828.36106	0.04101
3826.43242	0.03875
3824.50377	0.03574
3822.57513	0.03293
3820.64648	0.03104
3818.71784	0.03027
3816.78919	0.03036
3814.86055	0.03073
3812.93190	0.03081
3811.00326	0.03036
3809.07461	0.02964
3807.14597	0.02936
3805.21732	0.03029
3803.28867	0.03290
3801.36003	0.03711
3799.43138	0.04229
3797.50274	0.04741
3795.57409	0.05139
3793.64545	0.05341
3791.71680	0.05317
3789.78816	0.05097
3787.85951	0.04763
3785.93087	0.04426
3784.00222	0.04181
3782.07358	0.04072
3780.14493	0.04074
3778.21628	0.04125
3776.28764	0.04152
3774.35899	0.04126
3772.43035	0.04068
3770.50170	0.04038
3768.57306	0.04094
3766.64441	0.04257
3764.71577	0.04481
3762.78712	0.04667
3760.85848	0.04704
3758.92983	0.04518
3757.00119	0.04105
3755.07254	0.03523
3753.14389	0.02886
3751.21525	0.02323
3749.28660	0.01922
3747.35796	0.01703
3745.42931	0.01627
3743.50067	0.01626
3741.57202	0.01623
3739.64338	0.01561
3737.71473	0.01426
3735.78609	0.01251
3733.85744	0.01093
3731.92880	0.01016
3730.00015	0.01070
3728.07150	0.01272
3726.14286	0.01598
3724.21421	0.01985
3722.28557	0.02362
3720.35692	0.02684
3718.42828	0.02940
3716.49963	0.03154
3714.57099	0.03370
3712.64234	0.03629
3710.71370	0.03945
3708.78505	0.04295
3706.85641	0.04635
3704.92776	0.04920
3702.99911	0.05113
3701.07047	0.05196
3699.14182	0.05181
3697.21318	0.05111
3695.28453	0.05054
3693.35589	0.05090
3691.42724	0.05282
3689.49860	0.05642
3687.56995	0.06121
3685.64131	0.06627
3683.71266	0.07073
3681.78402	0.07422
3679.85537	0.07693
3677.92673	0.07962
3675.99808	0.08317
3674.06943	0.08815
3672.14079	0.09454
3670.21214	0.10183
3668.28350	0.10939
3666.35485	0.11664
3664.42621	0.12326
3662.49756	0.12925
3660.56892	0.13494
3658.64027	0.14074
3656.71163	0.14686
3654.78298	0.15326
3652.85434	0.15976
3650.92569	0.16617
3648.99704	0.17248
3647.06840	0.17896
3645.13975	0.18611
3643.21111	0.19435
3641.28246	0.20381
3639.35382	0.21409
3637.42517	0.22427
3635.49653	0.23329
3633.56788	0.24040
3631.63924	0.24553
3629.71059	0.24937
3627.78195	0.25328
3625.85330	0.25893
3623.92465	0.26765
3621.99601	0.27989
3620.06736	0.29498
3618.13872	0.31134
3616.21007	0.32702
3614.28143	0.34042
3612.35278	0.35094
3610.42414	0.35921
3608.49549	0.36673
3606.56685	0.37509
3604.63820	0.38523
3602.70956	0.39709
3600.78091	0.40978
3598.85226	0.42211
3596.92362	0.43320
3594.99497	0.44286
3593.06633	0.45157
3591.13768	0.46018
3589.20904	0.46946
3587.28039	0.47975
3585.35175	0.49086
3583.42310	0.50228
3581.49446	0.51349
3579.56581	0.52419
3577.63717	0.53444
3575.70852	0.54460
3573.77988	0.55509
3571.85123	0.56618
3569.92258	0.57790
3567.99394	0.59012
3566.06529	0.60266
3564.13665	0.61527
3562.20800	0.62774
3560.27936	0.63988
3558.35071	0.65153
3556.42207	0.66263
3554.49342	0.67316
3552.56478	0.68330
3550.63613	0.69333
3548.70749	0.70351
3546.77884	0.71396
3544.85019	0.72454
3542.92155	0.73497
3540.99290	0.74495
3539.06426	0.75437
3537.13561	0.76326
3535.20697	0.77178
3533.27832	0.77997
3531.34968	0.78778
3529.42103	0.79517
3527.49239	0.80241
3525.56374	0.81018
3523.63510	0.81933
3521.70645	0.83042
3519.77780	0.84347
3517.84916	0.85780
3515.92051	0.87237
3513.99187	0.88617
3512.06322	0.89863
3510.13458	0.90954
3508.20593	0.91880
3506.27729	0.92629
3504.34864	0.93193
3502.42000	0.93599
3500.49135	0.93923
3498.56271	0.94290
3496.63406	0.94843
3494.70541	0.95687
3492.77677	0.96839
3490.84812	0.98215
3488.91948	0.99656
3486.99083	1.00995
3485.06219	1.02122
3483.13354	1.03002
3481.20490	1.03682
3479.27625	1.04258
3477.34761	1.04841
3475.41896	1.05511
3473.49032	1.06305
3471.56167	1.07229
3469.63302	1.08268
3467.70438	1.09385
3465.77573	1.10515
3463.84709	1.11578
3461.91844	1.12511
3459.98980	1.13292
3458.06115	1.13958
3456.13251	1.14600
3454.20386	1.15327
3452.27522	1.16202
3450.34657	1.17197
3448.41793	1.18186
3446.48928	1.18998
3444.56064	1.19486
3442.63199	1.19605
3440.70334	1.19444
3438.77470	1.19206
3436.84605	1.19125
3434.91741	1.19370
3432.98876	1.19971
3431.06012	1.20815
3429.13147	1.21703
3427.20283	1.22458
3425.27418	1.23000
3423.34554	1.23380
3421.41689	1.23721
3419.48825	1.24150
3417.55960	1.24724
3415.63095	1.25412
3413.70231	1.26122
3411.77366	1.26744
3409.84502	1.27215
3407.91637	1.27534
3405.98773	1.27760
3404.05908	1.27968
3402.13044	1.28221
3400.20179	1.28538
3398.27315	1.28889
3396.34450	1.29210
3394.41586	1.29446
3392.48721	1.29576
3390.55856	1.29624
3388.62992	1.29627
3386.70127	1.29620
3384.77263	1.29609
3382.84398	1.29579
3380.91534	1.29513
3378.98669	1.29410
3377.05805	1.29293
3375.12940	1.29196
3373.20076	1.29148
3371.27211	1.29163
3369.34347	1.29240
3367.41482	1.29378
3365.48617	1.29570
3363.55753	1.29796
3361.62888	1.30012
3359.70024	1.30168
3357.77159	1.30221
3355.84295	1.30162
3353.91430	1.30021
3351.98566	1.29842
3350.05701	1.29647
3348.12837	1.29422
3346.19972	1.29133
3344.27108	1.28763
3342.34243	1.28340
3340.41378	1.27944
3338.48514	1.27682
3336.55649	1.27632
3334.62785	1.27803
3332.69920	1.28131
3330.77056	1.28518
3328.84191	1.28866
3326.91327	1.29104
3324.98462	1.29199
3323.05598	1.29157
3321.12733	1.29013
3319.19869	1.28813
3317.27004	1.28607
3315.34140	1.28449
3313.41275	1.28381
3311.48410	1.28424
3309.55546	1.28559
3307.62681	1.28738
3305.69817	1.28908
3303.76952	1.29036
3301.84088	1.29116
3299.91223	1.29157
3297.98359	1.29174
3296.05494	1.29165
3294.12630	1.29117
3292.19765	1.29019
3290.26901	1.28884
3288.34036	1.28742
3286.41171	1.28620
3284.48307	1.28512
3282.55442	1.28377
3280.62578	1.28157
3278.69713	1.27809
3276.76849	1.27331
3274.83984	1.26760
3272.91120	1.26159
3270.98255	1.25580
3269.05391	1.25058
3267.12526	1.24599
3265.19662	1.24193
3263.26797	1.23818
3261.33932	1.23453
3259.41068	1.23073
3257.48203	1.22647
3255.55339	1.22136
3253.62474	1.21494
3251.69610	1.20698
3249.76745	1.19763
3247.83881	1.18749
3245.91016	1.17757
3243.98152	1.16893
3242.05287	1.16228
3240.12423	1.15765
3238.19558	1.15449
3236.26693	1.15196
3234.33829	1.14925
3232.40964	1.14578
3230.48100	1.14136
3228.55235	1.13614
3226.62371	1.13050
3224.69506	1.12487
3222.76642	1.11967
3220.83777	1.11520
3218.90913	1.11135
3216.98048	1.10766
3215.05184	1.10349
3213.12319	1.09835
3211.19455	1.09205
3209.26590	1.08474
3207.33725	1.07683
3205.40861	1.06883
3203.47996	1.06115
3201.55132	1.05397
3199.62267	1.04736
3197.69403	1.04145
3195.76538	1.03634
3193.83674	1.03199
3191.90809	1.02821
3189.97945	1.02458
3188.05080	1.02060
3186.12216	1.01579
3184.19351	1.00987
3182.26486	1.00283
3180.33622	0.99485
3178.40757	0.98621
3176.47893	0.97726
3174.55028	0.96847
3172.62164	0.96043
3170.69299	0.95363
3168.76435	0.94820
3166.83570	0.94375
3164.90706	0.93955
3162.97841	0.93483
3161.04977	0.92925
3159.12112	0.92305
3157.19247	0.91696
3155.26383	0.91163
3153.33518	0.90727
3151.40654	0.90356
3149.47789	0.89991
3147.54925	0.89584
3145.62060	0.89129
3143.69196	0.88663
3141.76331	0.88242
3139.83467	0.87899
3137.90602	0.87616
3135.97738	0.87337
3134.04873	0.86989
3132.12008	0.86519
3130.19144	0.85917
3128.26279	0.85224
3126.33415	0.84506
3124.40550	0.83826
3122.47686	0.83216
3120.54821	0.82674
3118.61957	0.82181
3116.69092	0.81710
3114.76228	0.81250
3112.83363	0.80801
3110.90499	0.80375
3108.97634	0.79989
3107.04769	0.79666
3105.11905	0.79426
3103.19040	0.79269
3101.26176	0.79167
3099.33311	0.79065
3097.40447	0.78899
3095.47582	0.78613
3093.54718	0.78182
3091.61853	0.77629
3089.68989	0.77014
3087.76124	0.76406
3085.83260	0.75851
3083.90395	0.75364
3081.97531	0.74931
3080.04666	0.74527
3078.11801	0.74125
3076.18937	0.73719
3074.26072	0.73326
3072.33208	0.72976
3070.40343	0.72690
3068.47479	0.72466
3066.54614	0.72282
3064.61750	0.72094
3062.68885	0.71849
3060.76021	0.71503
3058.83156	0.71032
3056.90292	0.70451
3054.97427	0.69806
3053.04562	0.69160
3051.11698	0.68576
3049.18833	0.68086
3047.25969	0.67680
3045.33104	0.67313
3043.40240	0.66935
3041.47375	0.66518
3039.54511	0.66070
3037.61646	0.65622
3035.68782	0.65205
3033.75917	0.64827
3031.83053	0.64479
3029.90188	0.64140
3027.97323	0.63791
3026.04459	0.63430
3024.11594	0.63071
3022.18730	0.62737
3020.25865	0.62453
3018.33001	0.62230
3016.40136	0.62073
3014.47272	0.61967
3012.54407	0.61882
3010.61543	0.61786
3008.68678	0.61660
3006.75814	0.61509
3004.82949	0.61347
3002.90084	0.61197
3000.97220	0.61079
2999.04355	0.60998
2997.11491	0.60951
2995.18626	0.60942
2993.25762	0.61002
2991.32897	0.61160
2989.40033	0.61421
2987.47168	0.61763
2985.54304	0.62145
2983.61439	0.62525
2981.68575	0.62874
2979.75710	0.63198
2977.82845	0.63556
2975.89981	0.64025
2973.97116	0.64660
2972.04252	0.65492
2970.11387	0.66526
2968.18523	0.67715
2966.25658	0.68939
2964.32794	0.70042
2962.39929	0.70885
2960.47065	0.71371
2958.54200	0.71477
2956.61336	0.71274
2954.68471	0.70914
2952.75607	0.70566
2950.82742	0.70356
2948.89877	0.70377
2946.97013	0.70689
2945.04148	0.71312
2943.11284	0.72228
2941.18419	0.73413
2939.25555	0.74845
2937.32690	0.76479
2935.39826	0.78244
2933.46961	0.80056
2931.54097	0.81828
2929.61232	0.83464
2927.68368	0.84866
2925.75503	0.85925
2923.82638	0.86499
2921.89774	0.86420
2919.96909	0.85553
2918.04045	0.83868
2916.11180	0.81485
2914.18316	0.78673
2912.25451	0.75780
2910.32587	0.73123
2908.39722	0.70885
2906.46858	0.69100
2904.53993	0.67698
2902.61129	0.66565
2900.68264	0.65574
2898.75399	0.64621
2896.82535	0.63634
2894.89670	0.62579
2892.96806	0.61476
2891.03941	0.60402
2889.11077	0.59465
2887.18212	0.58773
2885.25348	0.58392
2883.32483	0.58305
2881.39619	0.58409
2879.46754	0.58562
2877.53890	0.58641
2875.61025	0.58571
2873.68160	0.58340
2871.75296	0.58022
2869.82431	0.57756
2867.89567	0.57689
2865.96702	0.57939
2864.03838	0.58585
2862.10973	0.59642
2860.18109	0.61008
2858.25244	0.62461
2856.32380	0.63701
2854.39515	0.64404
2852.46651	0.64311
2850.53786	0.63326
2848.60922	0.61564
2846.68057	0.59304
2844.75192	0.56884
2842.82328	0.54596
2840.89463	0.52619
2838.96599	0.51010
2837.03734	0.49739
2835.10870	0.48749
2833.18005	0.48002
2831.25141	0.47468
2829.32276	0.47103
2827.39412	0.46834
2825.46547	0.46585
2823.53683	0.46295
2821.60818	0.45924
2819.67953	0.45473
2817.75089	0.44991
2815.82224	0.44549
2813.89360	0.44186
2811.96495	0.43919
2810.03631	0.43752
2808.10766	0.43658
2806.17902	0.43564
2804.25037	0.43405
2802.32173	0.43169
2800.39308	0.42882
2798.46444	0.42585
2796.53579	0.42339
2794.60714	0.42205
2792.67850	0.42181
2790.74985	0.42197
2788.82121	0.42182
2786.89256	0.42098
2784.96392	0.41932
2783.03527	0.41683
2781.10663	0.41376
2779.17798	0.41051
2777.24934	0.40736
2775.32069	0.40445
2773.39205	0.40195
2771.46340	0.40007
2769.53475	0.39881
2767.60611	0.39787
2765.67746	0.39685
2763.74882	0.39552
2761.82017	0.39391
2759.89153	0.39229
2757.96288	0.39100
2756.03424	0.39016
2754.10559	0.38965
2752.17695	0.38922
2750.24830	0.38867
2748.31966	0.38794
2746.39101	0.38713
2744.46236	0.38644
2742.53372	0.38596
2740.60507	0.38552
2738.67643	0.38479
2736.74778	0.38372
2734.81914	0.38246
2732.89049	0.38115
2730.96185	0.37972
2729.03320	0.37794
2727.10456	0.37560
2725.17591	0.37270
2723.24727	0.36962
2721.31862	0.36708
2719.38998	0.36571
2717.46133	0.36568
2715.53268	0.36659
2713.60404	0.36752
2711.67539	0.36752
2709.74675	0.36620
2707.81810	0.36388
2705.88946	0.36122
2703.96081	0.35879
2702.03217	0.35694
2700.10352	0.35569
2698.17488	0.35460
2696.24623	0.35304
2694.31759	0.35085
2692.38894	0.34835
2690.46029	0.34599
2688.53165	0.34412
2686.60300	0.34310
2684.67436	0.34317
2682.74571	0.34416
2680.81707	0.34550
2678.88842	0.34665
2676.95978	0.34715
2675.03113	0.34653
2673.10249	0.34452
2671.17384	0.34149
2669.24520	0.33827
2667.31655	0.33567
2665.38790	0.33411
2663.45926	0.33368
2661.53061	0.33418
2659.60197	0.33512
2657.67332	0.33593
2655.74468	0.33614
2653.81603	0.33551
2651.88739	0.33387
2649.95874	0.33111
2648.03010	0.32756
2646.10145	0.32400
2644.17281	0.32123
2642.24416	0.31966
2640.31551	0.31917
2638.38687	0.31915
2636.45822	0.31884
2634.52958	0.31784
2632.60093	0.31642
2630.67229	0.31512
2628.74364	0.31416
2626.81500	0.31346
2624.88635	0.31280
2622.95771	0.31187
2621.02906	0.31032
2619.10042	0.30817
2617.17177	0.30584
2615.24312	0.30366
2613.31448	0.30172
2611.38583	0.30018
2609.45719	0.29949
2607.52854	0.29997
2605.59990	0.30141
2603.67125	0.30310
2601.74261	0.30418
2599.81396	0.30373
2597.88532	0.30108
2595.95667	0.29627
2594.02803	0.29039
2592.09938	0.28520
2590.17074	0.28219
2588.24209	0.28185
2586.31344	0.28367
2584.38480	0.28642
2582.45615	0.28870
2580.52751	0.28967
2578.59886	0.28933
2576.67022	0.28822
2574.74157	0.28683
2572.81293	0.28542
2570.88428	0.28416
2568.95564	0.28326
2567.02699	0.28299
2565.09835	0.28365
2563.16970	0.28518
2561.24105	0.28681
2559.31241	0.28745
2557.38376	0.28652
2555.45512	0.28423
2553.52647	0.28119
2551.59783	0.27795
2549.66918	0.27501
2547.74054	0.27283
2545.81189	0.27145
2543.88325	0.27063
2541.95460	0.27029
2540.02596	0.27047
2538.09731	0.27100
2536.16866	0.27149
2534.24002	0.27188
2532.31137	0.27275
2530.38273	0.27479
2528.45408	0.27805
2526.52544	0.28164
2524.59679	0.28423
2522.66815	0.28485
2520.73950	0.28340
2518.81086	0.28069
2516.88221	0.27816
2514.95357	0.27721
2513.02492	0.27802
2511.09627	0.27914
2509.16763	0.27861
2507.23898	0.27541
2505.31034	0.27004
2503.38169	0.26422
2501.45305	0.26013
2499.52440	0.25922
2497.59576	0.26131
2495.66711	0.26489
2493.73847	0.26828
2491.80982	0.27063
2489.88118	0.27211
2487.95253	0.27370
2486.02389	0.27636
2484.09524	0.28005
2482.16659	0.28357
2480.23795	0.28564
2478.30930	0.28587
2476.38066	0.28481
2474.45201	0.28331
2472.52337	0.28221
2470.59472	0.28222
2468.66608	0.28340
2466.73743	0.28487
2464.80879	0.28535
2462.88014	0.28419
2460.95150	0.28136
2459.02285	0.27705
2457.09420	0.27202
2455.16556	0.26782
2453.23691	0.26617
2451.30827	0.26794
2449.37962	0.27277
2447.45098	0.27928
2445.52233	0.28510
2443.59369	0.28742
2441.66504	0.28455
2439.73640	0.27693
2437.80775	0.26711
2435.87911	0.25881
2433.95046	0.25532
2432.02181	0.25785
2430.09317	0.26491
2428.16452	0.27329
2426.23588	0.27984
2424.30723	0.28284
2422.37859	0.28243
2420.44994	0.28029
2418.52130	0.27848
2416.59265	0.27816
2414.66401	0.27921
2412.73536	0.28078
2410.80672	0.28200
2408.87807	0.28234
2406.94942	0.28163
2405.02078	0.28021
2403.09213	0.27880
2401.16349	0.27810
2399.23484	0.27824
2397.30620	0.27876
2395.37755	0.27889
2393.44891	0.27799
2391.52026	0.27592
2389.59162	0.27335
2387.66297	0.27165
2385.73433	0.27214
2383.80568	0.27521
2381.87703	0.27985
2379.94839	0.28379
2378.01974	0.28414
2376.09110	0.27849
2374.16245	0.26611
2372.23381	0.24850
2370.30516	0.22924
2368.37652	0.21301
2366.44787	0.20404
2364.51923	0.20446
2362.59058	0.21325
2360.66194	0.22665
2358.73329	0.24020
2356.80465	0.25062
2354.87600	0.25711
2352.94735	0.26147
2351.01871	0.26689
2349.09006	0.27582
2347.16142	0.28814
2345.23277	0.30078
2343.30413	0.30952
2341.37548	0.31089
2339.44684	0.30373
2337.51819	0.28980
2335.58955	0.27302
2333.66090	0.25769
2331.73226	0.24673
2329.80361	0.24095
2327.87496	0.23965
2325.94632	0.24141
2324.01767	0.24496
2322.08903	0.24970
2320.16038	0.25557
2318.23174	0.26247
2316.30309	0.26991
2314.37445	0.27693
2312.44580	0.28235
2310.51716	0.28499
2308.58851	0.28408
2306.65987	0.27972
2304.73122	0.27307
2302.80257	0.26594
2300.87393	0.26019
2298.94528	0.25699
2297.01664	0.25631
2295.08799	0.25701
2293.15935	0.25757
2291.23070	0.25705
2289.30206	0.25548
2287.37341	0.25358
2285.44477	0.25204
2283.51612	0.25096
2281.58748	0.24985
2279.65883	0.24817
2277.73018	0.24578
2275.80154	0.24309
2273.87289	0.24077
2271.94425	0.23921
2270.01560	0.23816
2268.08696	0.23694
2266.15831	0.23492
2264.22967	0.23184
2262.30102	0.22794
2260.37238	0.22402
2258.44373	0.22112
2256.51509	0.21963
2254.58644	0.21898
2252.65779	0.21849
2250.72915	0.21814
2248.80050	0.21861
2246.87186	0.22114
2244.94321	0.22701
2243.01457	0.23567
2241.08592	0.24372
2239.15728	0.24708
2237.22863	0.24456
2235.29999	0.23876
2233.37134	0.23388
2231.44270	0.23346
2229.51405	0.23839
2227.58541	0.24540
2225.65676	0.24892
2223.72811	0.24611
2221.79947	0.24026
2219.87082	0.23789
2217.94218	0.24299
2216.01353	0.25423
2214.08489	0.26569
2212.15624	0.26921
2210.22760	0.25830
2208.29895	0.23272
2206.37031	0.19980
2204.44166	0.17058
2202.51302	0.15475
2200.58437	0.15753
2198.65572	0.17769
2196.72708	0.20679
2194.79843	0.23238
2192.86979	0.24406
2190.94114	0.23763
2189.01250	0.21565
2187.08385	0.18583
2185.15521	0.15748
2183.22656	0.13555
2181.29792	0.11780
2179.36927	0.09901
2177.44063	0.07675
2175.51198	0.05406
2173.58333	0.03890
2171.65469	0.03978
2169.72604	0.05787
2167.79740	0.08317
2165.86875	0.10015
2163.94011	0.09718
2162.01146	0.07220
2160.08282	0.03488
2158.15417	0.00469
2156.22553	0.00000
2154.29688	0.02499
2152.36824	0.06948
2150.43959	0.11906
2148.51094	0.16196
2146.58230	0.19101
2144.65365	0.20521
2142.72501	0.20958
2140.79636	0.20984
2138.86772	0.20768
2136.93907	0.20284
2135.01043	0.19671
2133.08178	0.19137
2131.15314	0.18760
2129.22449	0.18501
2127.29585	0.18298
2125.36720	0.18112
2123.43856	0.17950
2121.50991	0.17915
2119.58126	0.18135
2117.65262	0.18587
2115.72397	0.19119
2113.79533	0.19613
2111.86668	0.20010
2109.93804	0.20235
2108.00939	0.20230
2106.08075	0.20013
2104.15210	0.19598
2102.22346	0.18917
2100.29481	0.17994
2098.36617	0.17101
2096.43752	0.16629
2094.50887	0.16888
2092.58023	0.17980
2090.65158	0.19731
2088.72294	0.21646
2086.79429	0.23064
2084.86565	0.23468
2082.93700	0.22726
2081.00836	0.21107
2079.07971	0.19160
2077.15107	0.17478
2075.22242	0.16455
2073.29378	0.16176
2071.36513	0.16465
2069.43648	0.17038
2067.50784	0.17627
2065.57919	0.18056
2063.65055	0.18244
2061.72190	0.18160
2059.79326	0.17798
2057.86461	0.17199
2055.93597	0.16516
2054.00732	0.15991
2052.07868	0.15802
2050.15003	0.15902
2048.22139	0.16036
2046.29274	0.15938
2044.36409	0.15508
2042.43545	0.14855
2040.50680	0.14171
2038.57816	0.13543
2036.64951	0.12802
2034.72087	0.11568
2032.79222	0.09560
2030.86358	0.06960
2028.93493	0.04478
2027.00629	0.02953
2025.07764	0.02911
2023.14900	0.04294
2021.22035	0.06471
2019.29170	0.08645
2017.36306	0.10271
2015.43441	0.11310
2013.50577	0.12185
2011.57712	0.13456
2009.64848	0.15407
2007.71983	0.17851
2005.79119	0.20244
2003.86254	0.21992
2001.93390	0.22736
2000.00525	0.22497
1998.07661	0.21660
1996.14796	0.20781
1994.21932	0.20317
1992.29067	0.20440
1990.36202	0.21012
1988.43338	0.21708
1986.50473	0.22186
1984.57609	0.22217
1982.64744	0.21719
1980.71880	0.20719
1978.79015	0.19335
1976.86151	0.17814
1974.93286	0.16517
1973.00422	0.15814
1971.07557	0.15926
1969.14693	0.16828
1967.21828	0.18232
1965.28963	0.19675
1963.36099	0.20725
1961.43234	0.21224
1959.50370	0.21374
1957.57505	0.21596
1955.64641	0.22269
1953.71776	0.23486
1951.78912	0.24961
1949.86047	0.26127
1947.93183	0.26404
1946.00318	0.25472
1944.07454	0.23433
1942.14589	0.20784
1940.21724	0.18219
1938.28860	0.16330
1936.35995	0.15392
1934.43131	0.15325
1932.50266	0.15817
1930.57402	0.16495
1928.64537	0.17084
1926.71673	0.17478
1924.78808	0.17703
1922.85944	0.17815
1920.93079	0.17831
1919.00215	0.17749
1917.07350	0.17604
1915.14485	0.17483
1913.21621	0.17490
1911.28756	0.17697
1909.35892	0.18096
1907.43027	0.18577
1905.50163	0.18973
1903.57298	0.19148
1901.64434	0.19086
1899.71569	0.18894
1897.78705	0.18731
1895.85840	0.18726
1893.92976	0.18933
1892.00111	0.19302
1890.07246	0.19709
1888.14382	0.20012
1886.21517	0.20142
1884.28653	0.20134
1882.35788	0.20082
1880.42924	0.20070
1878.50059	0.20117
1876.57195	0.20174
1874.64330	0.20147
1872.71466	0.19950
1870.78601	0.19564
1868.85737	0.19068
1866.92872	0.18598
1865.00008	0.18268
1863.07143	0.18119
1861.14278	0.18124
1859.21414	0.18214
1857.28549	0.18307
1855.35685	0.18346
1853.42820	0.18325
1851.49956	0.18272
1849.57091	0.18213
1847.64227	0.18160
1845.71362	0.18122
1843.78498	0.18102
1841.85633	0.18087
1839.92769	0.18055
1837.99904	0.17986
1836.07039	0.17877
1834.14175	0.17737
1832.21310	0.17588
1830.28446	0.17469
1828.35581	0.17409
1826.42717	0.17412
1824.49852	0.17461
1822.56988	0.17534
1820.64123	0.17620
1818.71259	0.17709
1816.78394	0.17797
1814.85530	0.17875
1812.92665	0.17922
1810.99800	0.17912
1809.06936	0.17835
1807.14071	0.17710
1805.21207	0.17568
1803.28342	0.17438
1801.35478	0.17335
1799.42613	0.17256
1797.49749	0.17176
1795.56884	0.17076
1793.64020	0.16959
1791.71155	0.16847
1789.78291	0.16777
1787.85426	0.16776
1785.92561	0.16842
1783.99697	0.16938
1782.06832	0.17009
1780.13968	0.17007
1778.21103	0.16919
1776.28239	0.16782
1774.35374	0.16671
1772.42510	0.16668
1770.49645	0.16823
1768.56781	0.17135
1766.63916	0.17571
1764.71052	0.18081
1762.78187	0.18629
1760.85322	0.19204
1758.92458	0.19821
1756.99593	0.20503
1755.06729	0.21261
1753.13864	0.22086
1751.21000	0.22960
1749.28135	0.23853
1747.35271	0.24728
1745.42406	0.25549
1743.49542	0.26288
1741.56677	0.26931
1739.63813	0.27479
1737.70948	0.27959
1735.78084	0.28419
1733.85219	0.28906
1731.92354	0.29438
1729.99490	0.29988
1728.06625	0.30493
1726.13761	0.30887
1724.20896	0.31143
1722.28032	0.31296
1720.35167	0.31442
1718.42303	0.31687
1716.49438	0.32099
1714.56574	0.32675
1712.63709	0.33350
1710.70845	0.34037
1708.77980	0.34678
1706.85115	0.35280
1704.92251	0.35916
1702.99386	0.36699
1701.06522	0.37745
1699.13657	0.39126
1697.20793	0.40842
1695.27928	0.42820
1693.35064	0.44951
1691.42199	0.47137
1689.49335	0.49323
1687.56470	0.51504
1685.63606	0.53708
1683.70741	0.55964
1681.77876	0.58267
1679.85012	0.60592
1677.92147	0.62925
1675.99283	0.65287
1674.06418	0.67726
1672.13554	0.70280
1670.20689	0.72958
1668.27825	0.75712
1666.34960	0.78445
1664.42096	0.81030
1662.49231	0.83364
1660.56367	0.85398
1658.63502	0.87128
1656.70637	0.88593
1654.77773	0.89855
1652.84908	0.90987
1650.92044	0.92033
1648.99179	0.92991
1647.06315	0.93826
1645.13450	0.94495
1643.20586	0.94971
1641.27721	0.95251
1639.34857	0.95370
1637.41992	0.95373
1635.49128	0.95283
1633.56263	0.95063
1631.63399	0.94637
1629.70534	0.93916
1627.77669	0.92848
1625.84805	0.91450
1623.91940	0.89814
1621.99076	0.88089
1620.06211	0.86425
1618.13347	0.84937
1616.20482	0.83681
1614.27618	0.82659
1612.34753	0.81840
1610.41889	0.81182
1608.49024	0.80651
1606.56160	0.80207
1604.63295	0.79800
1602.70430	0.79368
1600.77566	0.78843
1598.84701	0.78172
1596.91837	0.77338
1594.98972	0.76361
1593.06108	0.75286
1591.13243	0.74165
1589.20379	0.73027
1587.27514	0.71878
1585.34650	0.70716
1583.41785	0.69550
1581.48921	0.68417
1579.56056	0.67379
1577.63191	0.66498
1575.70327	0.65818
1573.77462	0.65332
1571.84598	0.64971
1569.91733	0.64626
1567.98869	0.64195
1566.06004	0.63623
1564.13140	0.62925
1562.20275	0.62183
1560.27411	0.61520
1558.34546	0.61042
1556.41682	0.60782
1554.48817	0.60680
1552.55952	0.60603
1550.63088	0.60394
1548.70223	0.59924
1546.77359	0.59143
1544.84494	0.58090
1542.91630	0.56871
1540.98765	0.55620
1539.05901	0.54451
1537.13036	0.53420
1535.20172	0.52527
1533.27307	0.51726
1531.34443	0.50964
1529.41578	0.50202
1527.48713	0.49442
1525.55849	0.48720
1523.62984	0.48083
1521.70120	0.47544
1519.77255	0.47049
1517.84391	0.46477
1515.91526	0.45682
1513.98662	0.44559
1512.05797	0.43102
1510.12933	0.41411
1508.20068	0.39653
1506.27204	0.37999
1504.34339	0.36556
1502.41475	0.35339
1500.48610	0.34289
1498.55745	0.33327
1496.62881	0.32404
1494.70016	0.31516
1492.77152	0.30691
1490.84287	0.29974
1488.91423	0.29407
1486.98558	0.29013
1485.05694	0.28796
1483.12829	0.28770
1481.19965	0.28974
1479.27100	0.29483
1477.34236	0.30378
1475.41371	0.31704
1473.48506	0.33425
1471.55642	0.35391
1469.62777	0.37354
1467.69913	0.39039
1465.77048	0.40244
1463.84184	0.40914
1461.91319	0.41133
1459.98455	0.41074
1458.05590	0.40914
1456.12726	0.40756
1454.19861	0.40603
1452.26997	0.40389
1450.34132	0.40050
1448.41267	0.39567
1446.48403	0.38986
1444.55538	0.38396
1442.62674	0.37901
1440.69809	0.37585
1438.76945	0.37497
1436.84080	0.37648
1434.91216	0.38018
1432.98351	0.38563
1431.05487	0.39222
1429.12622	0.39935
1427.19758	0.40647
1425.26893	0.41327
1423.34028	0.41978
1421.41164	0.42629
1419.48299	0.43321
1417.55435	0.44071
1415.62570	0.44862
1413.69706	0.45638
1411.76841	0.46323
1409.83977	0.46853
1407.91112	0.47203
1405.98248	0.47396
1404.05383	0.47488
1402.12519	0.47544
1400.19654	0.47607
1398.26789	0.47682
1396.33925	0.47746
1394.41060	0.47766
1392.48196	0.47719
1390.55331	0.47604
1388.62467	0.47441
1386.69602	0.47248
1384.76738	0.47024
1382.83873	0.46732
1380.91009	0.46321
1378.98144	0.45749
1377.05280	0.45005
1375.12415	0.44121
1373.19551	0.43156
1371.26686	0.42174
1369.33821	0.41221
1367.40957	0.40320
1365.48092	0.39476
1363.55228	0.38698
1361.62363	0.38001
1359.69499	0.37400
1357.76634	0.36889
1355.83770	0.36441
1353.90905	0.36013
1351.98041	0.35561
1350.05176	0.35064
1348.12312	0.34529
1346.19447	0.33992
1344.26582	0.33492
1342.33718	0.33055
1340.40853	0.32685
1338.47989	0.32373
1336.55124	0.32104
1334.62260	0.31868
1332.69395	0.31667
1330.76531	0.31503
1328.83666	0.31374
1326.90802	0.31263
1324.97937	0.31144
1323.05073	0.30991
1321.12208	0.30788
1319.19343	0.30541
1317.26479	0.30272
1315.33614	0.30018
1313.40750	0.29804
1311.47885	0.29640
1309.55021	0.29517
1307.62156	0.29415
1305.69292	0.29323
1303.76427	0.29246
1301.83563	0.29209
1299.90698	0.29240
1297.97834	0.29356
1296.04969	0.29554
1294.12104	0.29817
1292.19240	0.30121
1290.26375	0.30445
1288.33511	0.30781
1286.40646	0.31131
1284.47782	0.31504
1282.54917	0.31910
1280.62053	0.32365
1278.69188	0.32883
1276.76324	0.33467
1274.83459	0.34105
1272.90595	0.34773
1270.97730	0.35436
1269.04866	0.36061
1267.12001	0.36630
1265.19136	0.37134
1263.26272	0.37574
1261.33407	0.37948
1259.40543	0.38259
1257.47678	0.38516
1255.54814	0.38744
1253.61949	0.38984
1251.69085	0.39285
1249.76220	0.39679
1247.83356	0.40174
1245.90491	0.40745
1243.97627	0.41348
1242.04762	0.41940
1240.11897	0.42498
1238.19033	0.43022
1236.26168	0.43537
1234.33304	0.44074
1232.40439	0.44653
1230.47575	0.45272
1228.54710	0.45908
1226.61846	0.46517
1224.68981	0.47049
1222.76117	0.47469
1220.83252	0.47768
1218.90388	0.47964
1216.97523	0.48093
1215.04658	0.48199
1213.11794	0.48317
1211.18929	0.48470
1209.26065	0.48677
1207.33200	0.48963
1205.40336	0.49356
1203.47471	0.49873
1201.54607	0.50512
1199.61742	0.51257
1197.68878	0.52084
1195.76013	0.52981
1193.83149	0.53964
1191.90284	0.55075
1189.97419	0.56356
1188.04555	0.57828
1186.11690	0.59490
1184.18826	0.61312
1182.25961	0.63233
1180.33097	0.65201
1178.40232	0.67208
1176.47368	0.69293
1174.54503	0.71515
1172.61639	0.73919
1170.68774	0.76508
1168.75910	0.79205
1166.83045	0.81844
1164.90180	0.84250
1162.97316	0.86337
1161.04451	0.88140
1159.11587	0.89778
1157.18722	0.91403
1155.25858	0.93147
1153.32993	0.95069
1151.40129	0.97127
1149.47264	0.99237
1147.54400	1.01369
1145.61535	1.03576
1143.68671	1.05963
1141.75806	1.08646
1139.82942	1.11712
1137.90077	1.15165
1135.97212	1.18917
1134.04348	1.22816
1132.11483	1.26701
1130.18619	1.30431
1128.25754	1.33903
1126.32890	1.37054
1124.40025	1.39862
1122.47161	1.42366
1120.54296	1.44678
1118.61432	1.46944
1116.68567	1.49296
1114.75703	1.51806
1112.82838	1.54483
1110.89973	1.57276
1108.97109	1.60095
1107.04244	1.62855
1105.11380	1.65523
1103.18515	1.68112
1101.25651	1.70651
1099.32786	1.73183
1097.39922	1.75768
1095.47057	1.78477
1093.54193	1.81350
1091.61328	1.84380
1089.68464	1.87494
1087.75599	1.90549
1085.82734	1.93352
1083.89870	1.95709
1081.97005	1.97500
1080.04141	1.98716
1078.11276	1.99446
1076.18412	1.99830
1074.25547	1.99992
1072.32683	2.00000
1070.39818	1.99860
1068.46954	1.99553
1066.54089	1.99073
1064.61225	1.98453
1062.68360	1.97743
1060.75495	1.96990
1058.82631	1.96223
1056.89766	1.95459
1054.96902	1.94714
1053.04037	1.94035
1051.11173	1.93490
1049.18308	1.93144
1047.25444	1.93025
1045.32579	1.93117
1043.39715	1.93357
1041.46850	1.93656
1039.53986	1.93904
1037.61121	1.93990
1035.68256	1.93813
1033.75392	1.93294
1031.82527	1.92390
1029.89663	1.91085
1027.96798	1.89401
1026.03934	1.87400
1024.11069	1.85167
1022.18205	1.82781
1020.25340	1.80303
1018.32476	1.77773
1016.39611	1.75222
1014.46747	1.72675
1012.53882	1.70151
1010.61018	1.67670
1008.68153	1.65239
1006.75288	1.62861
1004.82424	1.60555
1002.89559	1.58366
1000.96695	1.56373
999.03830	1.54662
997.10966	1.53291
995.18101	1.52238
993.25237	1.51387
991.32372	1.50568
989.39508	1.49606
987.46643	1.48349
985.53779	1.46685
983.60914	1.44561
981.68049	1.41969
979.75185	1.38925
977.82320	1.35479
975.89456	1.31724
973.96591	1.27770
972.03727	1.23693
970.10862	1.19535
968.17998	1.15328
966.25133	1.11107
964.32269	1.06935
962.39404	1.02927
960.46540	0.99238
958.53675	0.95990
956.60810	0.93204
954.67946	0.90788
952.75081	0.88584
950.82217	0.86437
948.89352	0.84251
946.96488	0.82041
945.03623	0.79926
943.10759	0.78061
941.17894	0.76534
939.25030	0.75306
937.32165	0.74245
935.39301	0.73216
933.46436	0.72131
931.53571	0.70994
929.60707	0.69903
927.67842	0.68985
925.74978	0.68309
923.82113	0.67838
921.89249	0.67462
919.96384	0.67054
918.03520	0.66503
916.10655	0.65743
914.17791	0.64778
912.24926	0.63675
910.32062	0.62520
908.39197	0.61360
906.46333	0.60186
904.53468	0.58954
902.60603	0.57614
900.67739	0.56150
898.74874	0.54606
896.82010	0.53053
894.89145	0.51553
892.96281	0.50141
891.03416	0.48845
889.10552	0.47695
887.17687	0.46714
885.24823	0.45927
883.31958	0.45327
881.39094	0.44823
879.46229	0.44259
877.53364	0.43531
875.60500	0.42659
873.67635	0.41747
871.74771	0.40909
869.81906	0.40232
867.89042	0.39746
865.96177	0.39366
864.03313	0.38938
862.10448	0.38355
860.17584	0.37597
858.24719	0.36695
856.31855	0.35712
854.38990	0.34759
852.46125	0.33943
850.53261	0.33313
848.60396	0.32882
846.67532	0.32655
844.74667	0.32597
842.81803	0.32609
840.88938	0.32594
838.96074	0.32494
837.03209	0.32260
835.10345	0.31861
833.17480	0.31349
831.24616	0.30833
829.31751	0.30408
827.38886	0.30126
825.46022	0.30016
823.53157	0.30087
821.60293	0.30301
819.67428	0.30599
817.74564	0.30957
815.81699	0.31418
813.88835	0.32115
811.95970	0.33265
810.03106	0.35118
808.10241	0.37839
806.17377	0.41372
804.24512	0.45371
802.31647	0.49272
800.38783	0.52480
798.45918	0.54589
796.53054	0.55505
794.60189	0.55417
792.67325	0.54705
790.74460	0.53812
788.81596	0.53128
786.88731	0.52913
784.95867	0.53266
783.03002	0.54101
781.10138	0.55130
779.17273	0.55928
777.24409	0.56110
775.31544	0.55487
773.38679	0.54132
771.45815	0.52344
769.52950	0.50505
767.60086	0.48919
765.67221	0.47726
763.74357	0.46938
761.81492	0.46504
759.88628	0.46326
757.95763	0.46272
756.02899	0.46212
754.10034	0.46034
752.17170	0.45698
750.24305	0.45250
748.31440	0.44791
746.38576	0.44404
744.45711	0.44092
742.52847	0.43749
740.59982	0.43185
738.67118	0.42232
736.74253	0.40865
734.81389	0.39248
732.88524	0.37682
730.95660	0.36528
729.02795	0.36073
727.09931	0.36369
725.17066	0.37185
723.24201	0.38122
721.31337	0.38775
719.38472	0.38881
717.45608	0.38421
715.52743	0.37603
713.59879	0.36741
711.67014	0.36104
709.74150	0.35843
707.81285	0.35997
705.88421	0.36531
703.95556	0.37381
702.02692	0.38490
700.09827	0.39800
698.16962	0.41215
696.24098	0.42588
694.31233	0.43737
692.38369	0.44505
690.45504	0.44802
688.52640	0.44622
686.59775	0.44013
684.66911	0.43062
682.74046	0.41889
680.81182	0.40708
678.88317	0.39833
676.95453	0.39554
675.02588	0.39993
673.09723	0.41003
671.16859	0.42184
669.23994	0.43001
667.31130	0.43015
665.38265	0.42147
663.45401	0.40702
661.52536	0.39131
659.59672	0.37832
657.66807	0.37031
655.73943	0.36753
653.81078	0.36865
651.88214	0.37172
649.95349	0.37535
648.02485	0.37872
646.09620	0.38122
644.16755	0.38264
642.23891	0.38322
640.31026	0.38352
638.38162	0.38446
636.45297	0.38763
634.52433	0.39538
632.59568	0.40952
630.66704	0.42892
628.73839	0.44740
626.80975	0.45444
624.88110	0.44045
622.95246	0.40438
621.02381	0.35811
619.09516	0.32364
617.16652	0.32275
615.23787	0.36406
613.30923	0.43573
611.38058	0.50978
609.45194	0.55676
607.52329	0.56141
605.59465	0.52957
603.66600	0.48334
601.73736	0.44774
599.80871	0.43742
597.88007	0.45134
595.95142	0.47718
594.02277	0.50065
592.09413	0.51327
590.16548	0.51516
588.23684	0.51285
586.30819	0.51424
584.37955	0.52408
582.45090	0.54239
580.52226	0.56531
578.59361	0.58711
576.66497	0.60257
574.73632	0.60940
572.80768	0.60955
570.87903	0.60855
568.95038	0.61329
567.02174	0.62920
565.09309	0.65782
563.16445	0.69582
561.23580	0.73617
559.30716	0.77100
557.37851	0.79484
555.44987	0.80697
553.52122	0.81173
551.59258	0.81657
549.66393	0.82873
547.73529	0.85235
545.80664	0.88714
543.87800	0.92903
541.94935	0.97236
540.02070	1.01234
538.09206	1.04619
536.16341	1.07302
534.23477	1.09320
532.30612	1.10778
530.37748	1.11786
528.44883	1.12435
526.52019	1.12784
524.59154	1.12862
522.66290	1.12637
520.73425	1.12025
518.80561	1.10936
516.87696	1.09341
514.94831	1.07315
513.01967	1.05028
511.09102	1.02688
509.16238	1.00477
507.23373	0.98507
505.30509	0.96832
503.37644	0.95498
501.44780	0.94608
499.51915	0.94346
497.59051	0.94922
495.66186	0.96474
493.73322	0.98994
491.80457	1.02355
489.87592	1.06417
487.94728	1.11135
486.01863	1.16567
484.08999	1.22777
482.16134	1.29702
480.23270	1.37046
478.30405	1.44296
476.37541	1.50860
474.44676	1.56264
472.51812	1.60286
470.58947	1.62937
468.66083	1.64359
466.73218	1.64727
464.80353	1.64197
462.87489	1.62891
460.94624	1.60898
459.01760	1.58293
457.08895	1.55128
455.16031	1.51426
453.23166	1.47181
451.30302	1.42409
449.37437	1.37222
447.44573	1.31868
445.51708	1.26694
443.58844	1.22052
441.65979	1.18186
439.73114	1.15148
437.80250	1.12787
435.87385	1.10813
433.94521	1.08914
432.01656	1.06869
430.08792	1.04600
428.15927	1.02169
426.23063	0.99716
424.30198	0.97375
422.37334	0.95216
420.44469	0.93215
418.51605	0.91239
416.58740	0.89066
414.65876	0.86477
412.73011	0.83400
410.80146	0.80055
408.87282	0.76986
406.94417	0.74956
405.01553	0.74666
403.08688	0.76395
401.15824	0.79735
399.22959	0.83621
397.30095	0.86656
395.37230	0.87615
393.44366	0.85911
391.51501	0.81817
389.58637	0.76346
387.65772	0.70855
385.72907	0.66571
383.80043	0.64249
381.87178	0.64023
379.94314	0.65468
378.01449	0.67827
376.08585	0.70306
374.15720	0.72303
372.22856	0.73479
370.29991	0.73749
368.37127	0.73194
366.44262	0.71963
364.51398	0.70174
362.58533	0.67913
360.65668	0.65292
358.72804	0.62495
356.79939	0.59716
354.87075	0.57067
352.94210	0.54539
351.01346	0.52075
349.08481	0.49658
347.15617	0.47350
345.22752	0.45269
343.29888	0.43513
341.37023	0.42040
339.44159	0.40619
337.51294	0.38922
335.58429	0.36724
333.65565	0.34064
331.72700	0.31246
329.79836	0.28702
327.86971	0.26781
325.94107	0.25593
324.01242	0.24956
322.08378	0.24481
320.15513	0.23755
318.22649	0.22550
316.29784	0.20946
314.36920	0.19278
312.44055	0.17956
310.51190	0.17249
308.58326	0.17155
306.65461	0.17414
304.72597	0.17657
302.79732	0.17579
300.86868	0.17055
298.94003	0.16162
297.01139	0.15114
295.08274	0.14130
293.15410	0.13293
291.22545	0.12524
289.29681	0.11638
287.36816	0.10429
285.43952	0.08786
283.51087	0.06833
281.58222	0.04996
279.65358	0.03855
277.72493	0.03822
275.79629	0.05084
273.86764	0.07480
271.93900	0.10551
270.01035	0.13732
268.08171	0.16559
266.15306	0.18740
264.22442	0.20097
262.29577	0.20521
260.36713	0.19969
258.43848	0.18495
256.50983	0.16287
254.58119	0.13677
252.65254	0.11075
250.72390	0.08834
248.79525	0.07158
246.86661	0.06114
244.93796	0.05684
243.00932	0.05823
241.08067	0.06448
239.15203	0.07360
237.22338	0.08199
235.29474	0.08554
233.36609	0.08201
231.43744	0.07295
229.50880	0.06359
227.58015	0.06024
225.65151	0.06661
223.72286	0.08102
221.79422	0.09668
219.86557	0.10516
217.93693	0.10087
216.00828	0.08381
214.07964	0.05917
212.15099	0.03492
210.22235	0.01921
208.29370	0.01840
206.36505	0.03549
204.43641	0.06896
202.50776	0.11239
200.57912	0.15549
198.65047	0.18684
196.72183	0.19869
194.79318	0.19096
192.86454	0.17092
190.93589	0.14852
189.00725	0.13130
187.07860	0.12202
185.14996	0.11904
183.22131	0.11907
181.29267	0.12116
179.36402	0.12879
177.43537	0.14728
175.50673	0.17870
173.57808	0.21951
171.64944	0.26237
169.72079	0.29968
167.79215	0.32660
165.86350	0.34241
163.93486	0.34964
162.00621	0.34727
160.07757	0.34035
158.14892	0.33168
156.22028	0.32274
154.29163	0.32274
152.36298	0.32274
150.43434	0.32274
148.50569	0.32274
