4497.60101	0.04139
4495.67236	0.04139
4493.74372	0.04139
4491.81507	0.04139
4489.88643	0.04139
4487.95778	0.03656
4486.02914	0.03036
4484.10049	0.02435
4482.17185	0.02074
4480.24320	0.02187
4478.31455	0.02802
4476.38591	0.03820
4474.45726	0.05009
4472.52862	0.06062
4470.59997	0.06677
4468.67133	0.06655
4466.74268	0.05991
4464.81404	0.04893
4462.88539	0.03703
4460.95675	0.02737
4459.02810	0.02163
4457.09946	0.01958
4455.17081	0.01958
4453.24216	0.01989
4451.31352	0.02000
4449.38487	0.02091
4447.45623	0.02383
4445.52758	0.02874
4443.59894	0.03406
4441.67029	0.03753
4439.74165	0.03747
4437.81300	0.03374
4435.88436	0.02800
4433.95571	0.02307
4432.02707	0.02158
4430.09842	0.02478
4428.16978	0.03209
4426.24113	0.04182
4424.31248	0.05195
4422.38384	0.06057
4420.45519	0.06601
4418.52655	0.06739
4416.59790	0.06517
4414.66926	0.06079
4412.74061	0.05580
4410.81197	0.05130
4408.88332	0.04798
4406.95468	0.04625
4405.02603	0.04613
4403.09739	0.04717
4401.16874	0.04854
4399.24009	0.04943
4397.31145	0.04933
4395.38280	0.04798
4393.45416	0.04547
4391.52551	0.04265
4389.59687	0.04083
4387.66822	0.04042
4385.73958	0.04071
4383.81093	0.04101
4381.88229	0.04134
4379.95364	0.04201
4378.02500	0.04326
4376.09635	0.04515
4374.16770	0.04691
4372.23906	0.04692
4370.31041	0.04414
4368.38177	0.03951
4366.45312	0.03522
4364.52448	0.03353
4362.59583	0.03587
4360.66719	0.04181
4358.73854	0.04859
4356.80990	0.05283
4354.88125	0.05316
4352.95261	0.05054
4351.02396	0.04681
4349.09531	0.04359
4347.16667	0.04163
4345.23802	0.03995
4343.30938	0.03657
4341.38073	0.03070
4339.45209	0.02386
4337.52344	0.01859
4335.59480	0.01695
4333.66615	0.01991
4331.73751	0.02694
4329.80886	0.03605
4327.88022	0.04490
4325.95157	0.05184
4324.02292	0.05587
4322.09428	0.05649
4320.16563	0.05398
4318.23699	0.04944
4316.30834	0.04421
4314.37970	0.03964
4312.45105	0.03671
4310.52241	0.03538
4308.59376	0.03451
4306.66512	0.03304
4304.73647	0.03076
4302.80783	0.02825
4300.87918	0.02642
4298.95054	0.02634
4297.02189	0.02852
4295.09324	0.03238
4293.16460	0.03655
4291.23595	0.03966
4289.30731	0.04073
4287.37866	0.03924
4285.45002	0.03541
4283.52137	0.03032
4281.59273	0.02534
4279.66408	0.02150
4277.73544	0.01913
4275.80679	0.01817
4273.87815	0.01867
4271.94950	0.02073
4270.02085	0.02432
4268.09221	0.02914
4266.16356	0.03442
4264.23492	0.03862
4262.30627	0.04008
4260.37763	0.03844
4258.44898	0.03525
4256.52034	0.03288
4254.59169	0.03295
4252.66305	0.03568
4250.73440	0.03990
4248.80576	0.04332
4246.87711	0.04379
4244.94846	0.04048
4243.01982	0.03397
4241.09117	0.02554
4239.16253	0.01694
4237.23388	0.01041
4235.30524	0.00792
4233.37659	0.01025
4231.44795	0.01668
4229.51930	0.02530
4227.59066	0.03345
4225.66201	0.03880
4223.73337	0.04053
4221.80472	0.03967
4219.87607	0.03808
4217.94743	0.03730
4216.01878	0.03788
4214.09014	0.03943
4212.16149	0.04109
4210.23285	0.04198
4208.30420	0.04162
4206.37556	0.04008
4204.44691	0.03785
4202.51827	0.03562
4200.58962	0.03405
4198.66098	0.03359
4196.73233	0.03440
4194.80368	0.03622
4192.87504	0.03857
4190.94639	0.04098
4189.01775	0.04285
4187.08910	0.04334
4185.16046	0.04178
4183.23181	0.03822
4181.30317	0.03361
4179.37452	0.02944
4177.44588	0.02747
4175.51723	0.02903
4173.58859	0.03389
4171.65994	0.03979
4169.73130	0.04366
4167.80265	0.04350
4165.87400	0.03945
4163.94536	0.03339
4162.01671	0.02808
4160.08807	0.02582
4158.15942	0.02702
4156.23078	0.02985
4154.30213	0.03147
4152.37349	0.03014
4150.44484	0.02613
4148.51620	0.02140
4146.58755	0.01857
4144.65891	0.01963
4142.73026	0.02476
4140.80161	0.03212
4138.87297	0.03902
4136.94432	0.04353
4135.01568	0.04525
4133.08703	0.04489
4131.15839	0.04351
4129.22974	0.04167
4127.30110	0.03920
4125.37245	0.03553
4123.44381	0.03068
4121.51516	0.02597
4119.58652	0.02364
4117.65787	0.02526
4115.72922	0.03063
4113.80058	0.03797
4111.87193	0.04495
4109.94329	0.04976
4108.01464	0.05186
4106.08600	0.05192
4104.15735	0.05102
4102.22871	0.04962
4100.30006	0.04740
4098.37142	0.04399
4096.44277	0.03954
4094.51413	0.03496
4092.58548	0.03150
4090.65683	0.02983
4088.72819	0.02943
4086.79954	0.02905
4084.87090	0.02766
4082.94225	0.02495
4081.01361	0.02139
4079.08496	0.01848
4077.15632	0.01817
4075.22767	0.02155
4073.29903	0.02809
4071.37038	0.03623
4069.44174	0.04417
4067.51309	0.05014
4065.58444	0.05283
4063.65580	0.05233
4061.72715	0.04995
4059.79851	0.04702
4057.86986	0.04425
4055.94122	0.04186
4054.01257	0.03963
4052.08393	0.03686
4050.15528	0.03314
4048.22664	0.02903
4046.29799	0.02554
4044.36935	0.02327
4042.44070	0.02233
4040.51206	0.02248
4038.58341	0.02289
4036.65476	0.02250
4034.72612	0.02103
4032.79747	0.01921
4030.86883	0.01790
4028.94018	0.01766
4027.01154	0.01894
4025.08289	0.02190
4023.15425	0.02606
4021.22560	0.03025
4019.29696	0.03367
4017.36831	0.03570
4015.43967	0.03579
4013.51102	0.03384
4011.58237	0.03054
4009.65373	0.02699
4007.72508	0.02423
4005.79644	0.02326
4003.86779	0.02494
4001.93915	0.02941
4000.01050	0.03591
3998.08186	0.04309
3996.15321	0.04938
3994.22457	0.05330
3992.29592	0.05393
3990.36728	0.05146
3988.43863	0.04705
3986.50998	0.04232
3984.58134	0.03864
3982.65269	0.03676
3980.72405	0.03664
3978.79540	0.03752
3976.86676	0.03844
3974.93811	0.03856
3973.00947	0.03749
3971.08082	0.03535
3969.15218	0.03268
3967.22353	0.03020
3965.29489	0.02848
3963.36624	0.02777
3961.43759	0.02807
3959.50895	0.02916
3957.58030	0.03075
3955.65166	0.03263
3953.72301	0.03470
3951.79437	0.03690
3949.86572	0.03907
3947.93708	0.04092
3946.00843	0.04237
3944.07979	0.04353
3942.15114	0.04463
3940.22250	0.04586
3938.29385	0.04727
3936.36521	0.04863
3934.43656	0.04946
3932.50791	0.04929
3930.57927	0.04800
3928.65062	0.04589
3926.72198	0.04348
3924.79333	0.04129
3922.86469	0.03976
3920.93604	0.03915
3919.00740	0.03952
3917.07875	0.04091
3915.15011	0.04337
3913.22146	0.04683
3911.29282	0.05073
3909.36417	0.05396
3907.43552	0.05520
3905.50688	0.05354
3903.57823	0.04895
3901.64959	0.04250
3899.72094	0.03611
3897.79230	0.03175
3895.86365	0.03056
3893.93501	0.03241
3892.00636	0.03611
3890.07772	0.04001
3888.14907	0.04267
3886.22043	0.04323
3884.29178	0.04172
3882.36313	0.03895
3880.43449	0.03604
3878.50584	0.03408
3876.57720	0.03389
3874.64855	0.03579
3872.71991	0.03934
3870.79126	0.04344
3868.86262	0.04686
3866.93397	0.04885
3865.00533	0.04935
3863.07668	0.04904
3861.14804	0.04898
3859.21939	0.04999
3857.29074	0.05209
3855.36210	0.05438
3853.43345	0.05559
3851.50481	0.05491
3849.57616	0.05252
3847.64752	0.04946
3845.71887	0.04703
3843.79023	0.04608
3841.86158	0.04655
3839.93294	0.04745
3838.00429	0.04747
3836.07565	0.04582
3834.14700	0.04267
3832.21835	0.03896
3830.28971	0.03585
3828.36106	0.03425
3826.43242	0.03449
3824.50377	0.03633
3822.57513	0.03925
3820.64648	0.04277
3818.71784	0.04650
3816.78919	0.04994
3814.86055	0.05254
3812.93190	0.05392
3811.00326	0.05410
3809.07461	0.05345
3807.14597	0.05263
3805.21732	0.05217
3803.28867	0.05211
3801.36003	0.05184
3799.43138	0.05061
3797.50274	0.04813
3795.57409	0.04490
3793.64545	0.04199
3791.71680	0.04055
3789.78816	0.04129
3787.85951	0.04409
3785.93087	0.04803
3784.00222	0.05176
3782.07358	0.05421
3780.14493	0.05492
3778.21628	0.05404
3776.28764	0.05220
3774.35899	0.05022
3772.43035	0.04880
3770.50170	0.04825
3768.57306	0.04849
3766.64441	0.04923
3764.71577	0.05025
3762.78712	0.05157
3760.85848	0.05347
3758.92983	0.05632
3757.00119	0.06026
3755.07254	0.06491
3753.14389	0.06930
3751.21525	0.07208
3749.28660	0.07227
3747.35796	0.06976
3745.42931	0.06546
3743.50067	0.06090
3741.57202	0.05763
3739.64338	0.05650
3737.71473	0.05724
3735.78609	0.05866
3733.85744	0.05946
3731.92880	0.05883
3730.00015	0.05668
3728.07150	0.05341
3726.14286	0.04974
3724.21421	0.04650
3722.28557	0.04446
3720.35692	0.04430
3718.42828	0.04648
3716.49963	0.05095
3714.57099	0.05693
3712.64234	0.06304
3710.71370	0.06791
3708.78505	0.07079
3706.85641	0.07185
3704.92776	0.07201
3702.99911	0.07246
3701.07047	0.07413
3699.14182	0.07727
3697.21318	0.08138
3695.28453	0.08564
3693.35589	0.08929
3691.42724	0.09182
3689.49860	0.09306
3687.56995	0.09324
3685.64131	0.09294
3683.71266	0.09284
3681.78402	0.09354
3679.85537	0.09559
3677.92673	0.09928
3675.99808	0.10466
3674.06943	0.11149
3672.14079	0.11948
3670.21214	0.12844
3668.28350	0.13824
3666.35485	0.14874
3664.42621	0.15965
3662.49756	0.17051
3660.56892	0.18091
3658.64027	0.19063
3656.71163	0.19987
3654.78298	0.20913
3652.85434	0.21891
3650.92569	0.22946
3648.99704	0.24062
3647.06840	0.25197
3645.13975	0.26311
3643.21111	0.27395
3641.28246	0.28489
3639.35382	0.29664
3637.42517	0.30983
3635.49653	0.32473
3633.56788	0.34108
3631.63924	0.35814
3629.71059	0.37500
3627.78195	0.39099
3625.85330	0.40600
3623.92465	0.42046
3621.99601	0.43497
3620.06736	0.44999
3618.13872	0.46561
3616.21007	0.48153
3614.28143	0.49729
3612.35278	0.51250
3610.42414	0.52716
3608.49549	0.54154
3606.56685	0.55596
3604.63820	0.57052
3602.70956	0.58499
3600.78091	0.59888
3598.85226	0.61164
3596.92362	0.62306
3594.99497	0.63351
3593.06633	0.64395
3591.13768	0.65554
3589.20904	0.66919
3587.28039	0.68522
3585.35175	0.70332
3583.42310	0.72273
3581.49446	0.74269
3579.56581	0.76273
3577.63717	0.78285
3575.70852	0.80317
3573.77988	0.82360
3571.85123	0.84358
3569.92258	0.86219
3567.99394	0.87864
3566.06529	0.89271
3564.13665	0.90512
3562.20800	0.91733
3560.27936	0.93101
3558.35071	0.94732
3556.42207	0.96645
3554.49342	0.98758
3552.56478	1.00925
3550.63613	1.03007
3548.70749	1.04929
3546.77884	1.06692
3544.85019	1.08357
3542.92155	1.10002
3540.99290	1.11687
3539.06426	1.13425
3537.13561	1.15199
3535.20697	1.16990
3533.27832	1.18797
3531.34968	1.20625
3529.42103	1.22464
3527.49239	1.24272
3525.56374	1.25988
3523.63510	1.27557
3521.70645	1.28961
3519.77780	1.30246
3517.84916	1.31499
3515.92051	1.32817
3513.99187	1.34257
3512.06322	1.35820
3510.13458	1.37456
3508.20593	1.39089
3506.27729	1.40653
3504.34864	1.42108
3502.42000	1.43459
3500.49135	1.44751
3498.56271	1.46047
3496.63406	1.47407
3494.70541	1.48861
3492.77677	1.50400
3490.84812	1.51970
3488.91948	1.53489
3486.99083	1.54876
3485.06219	1.56096
3483.13354	1.57180
3481.20490	1.58221
3479.27625	1.59339
3477.34761	1.60640
3475.41896	1.62171
3473.49032	1.63889
3471.56167	1.65677
3469.63302	1.67394
3467.70438	1.68918
3465.77573	1.70180
3463.84709	1.71183
3461.91844	1.72009
3459.98980	1.72777
3458.06115	1.73600
3456.13251	1.74545
3454.20386	1.75623
3452.27522	1.76786
3450.34657	1.77954
3448.41793	1.79062
3446.48928	1.80093
3444.56064	1.81076
3442.63199	1.82056
3440.70334	1.83064
3438.77470	1.84098
3436.84605	1.85120
3434.91741	1.86073
3432.98876	1.86907
3431.06012	1.87607
3429.13147	1.88195
3427.20283	1.88714
3425.27418	1.89214
3423.34554	1.89740
3421.41689	1.90323
3419.48825	1.90963
3417.55960	1.91631
3415.63095	1.92289
3413.70231	1.92905
3411.77366	1.93463
3409.84502	1.93965
3407.91637	1.94439
3405.98773	1.94919
3404.05908	1.95423
3402.13044	1.95938
3400.20179	1.96431
3398.27315	1.96862
3396.34450	1.97196
3394.41586	1.97415
3392.48721	1.97542
3390.55856	1.97630
3388.62992	1.97728
3386.70127	1.97855
3384.77263	1.98004
3382.84398	1.98153
3380.91534	1.98282
3378.98669	1.98390
3377.05805	1.98506
3375.12940	1.98666
3373.20076	1.98882
3371.27211	1.99121
3369.34347	1.99323
3367.41482	1.99420
3365.48617	1.99365
3363.55753	1.99152
3361.62888	1.98825
3359.70024	1.98460
3357.77159	1.98141
3355.84295	1.97932
3353.91430	1.97851
3351.98566	1.97866
3350.05701	1.97913
3348.12837	1.97920
3346.19972	1.97837
3344.27108	1.97650
3342.34243	1.97391
3340.41378	1.97126
3338.48514	1.96922
3336.55649	1.96816
3334.62785	1.96806
3332.69920	1.96844
3330.77056	1.96853
3328.84191	1.96754
3326.91327	1.96503
3324.98462	1.96105
3323.05598	1.95614
3321.12733	1.95110
3319.19869	1.94682
3317.27004	1.94390
3315.34140	1.94239
3313.41275	1.94178
3311.48410	1.94107
3309.55546	1.93933
3307.62681	1.93619
3305.69817	1.93214
3303.76952	1.92839
3301.84088	1.92630
3299.91223	1.92668
3297.98359	1.92928
3296.05494	1.93282
3294.12630	1.93563
3292.19765	1.93638
3290.26901	1.93452
3288.34036	1.93032
3286.41171	1.92461
3284.48307	1.91848
3282.55442	1.91272
3280.62578	1.90770
3278.69713	1.90345
3276.76849	1.89984
3274.83984	1.89663
3272.91120	1.89348
3270.98255	1.89001
3269.05391	1.88606
3267.12526	1.88157
3265.19662	1.87665
3263.26797	1.87156
3261.33932	1.86663
3259.41068	1.86200
3257.48203	1.85750
3255.55339	1.85279
3253.62474	1.84768
3251.69610	1.84228
3249.76745	1.83698
3247.83881	1.83220
3245.91016	1.82811
3243.98152	1.82444
3242.05287	1.82051
3240.12423	1.81547
3238.19558	1.80872
3236.26693	1.80020
3234.33829	1.79035
3232.40964	1.78003
3230.48100	1.77030
3228.55235	1.76208
3226.62371	1.75587
3224.69506	1.75162
3222.76642	1.74884
3220.83777	1.74682
3218.90913	1.74480
3216.98048	1.74218
3215.05184	1.73857
3213.12319	1.73371
3211.19455	1.72754
3209.26590	1.72018
3207.33725	1.71204
3205.40861	1.70372
3203.47996	1.69577
3201.55132	1.68842
3199.62267	1.68144
3197.69403	1.67423
3195.76538	1.66622
3193.83674	1.65723
3191.90809	1.64763
3189.97945	1.63824
3188.05080	1.62997
3186.12216	1.62331
3184.19351	1.61801
3182.26486	1.61319
3180.33622	1.60769
3178.40757	1.60047
3176.47893	1.59107
3174.55028	1.57982
3172.62164	1.56777
3170.69299	1.55631
3168.76435	1.54660
3166.83570	1.53921
3164.90706	1.53387
3162.97841	1.52963
3161.04977	1.52527
3159.12112	1.51984
3157.19247	1.51303
3155.26383	1.50515
3153.33518	1.49684
3151.40654	1.48860
3149.47789	1.48065
3147.54925	1.47289
3145.62060	1.46517
3143.69196	1.45754
3141.76331	1.45027
3139.83467	1.44371
3137.90602	1.43798
3135.97738	1.43285
3134.04873	1.42773
3132.12008	1.42207
3130.19144	1.41554
3128.26279	1.40824
3126.33415	1.40052
3124.40550	1.39281
3122.47686	1.38542
3120.54821	1.37848
3118.61957	1.37191
3116.69092	1.36547
3114.76228	1.35892
3112.83363	1.35218
3110.90499	1.34541
3108.97634	1.33897
3107.04769	1.33329
3105.11905	1.32863
3103.19040	1.32484
3101.26176	1.32133
3099.33311	1.31729
3097.40447	1.31217
3095.47582	1.30596
3093.54718	1.29920
3091.61853	1.29272
3089.68989	1.28714
3087.76124	1.28257
3085.83260	1.27859
3083.90395	1.27447
3081.97531	1.26952
3080.04666	1.26350
3078.11801	1.25661
3076.18937	1.24936
3074.26072	1.24216
3072.33208	1.23522
3070.40343	1.22855
3068.47479	1.22201
3066.54614	1.21554
3064.61750	1.20925
3062.68885	1.20336
3060.76021	1.19809
3058.83156	1.19347
3056.90292	1.18925
3054.97427	1.18505
3053.04562	1.18050
3051.11698	1.17534
3049.18833	1.16945
3047.25969	1.16296
3045.33104	1.15605
3043.40240	1.14883
3041.47375	1.14129
3039.54511	1.13347
3037.61646	1.12556
3035.68782	1.11792
3033.75917	1.11101
3031.83053	1.10517
3029.90188	1.10044
3027.97323	1.09637
3026.04459	1.09227
3024.11594	1.08753
3022.18730	1.08195
3020.25865	1.07586
3018.33001	1.06996
3016.40136	1.06486
3014.47272	1.06082
3012.54407	1.05765
3010.61543	1.05494
3008.68678	1.05232
3006.75814	1.04967
3004.82949	1.04705
3002.90084	1.04463
3000.97220	1.04256
2999.04355	1.04097
2997.11491	1.04004
2995.18626	1.04002
2993.25762	1.04110
2991.32897	1.04312
2989.40033	1.04562
2987.47168	1.04814
2985.54304	1.05059
2983.61439	1.05317
2981.68575	1.05622
2979.75710	1.05995
2977.82845	1.06430
2975.89981	1.06894
2973.97116	1.07373
2972.04252	1.07909
2970.11387	1.08570
2968.18523	1.09377
2966.25658	1.10255
2964.32794	1.11052
2962.39929	1.11598
2960.47065	1.11783
2958.54200	1.11604
2956.61336	1.11158
2954.68471	1.10568
2952.75607	1.09942
2950.82742	1.09352
2948.89877	1.08859
2946.97013	1.08538
2945.04148	1.08483
2943.11284	1.08755
2941.18419	1.09331
2939.25555	1.10097
2937.32690	1.10898
2935.39826	1.11618
2933.46961	1.12236
2931.54097	1.12808
2929.61232	1.13396
2927.68368	1.14000
2925.75503	1.14536
2923.82638	1.14837
2921.89774	1.14705
2919.96909	1.14000
2918.04045	1.12689
2916.11180	1.10827
2914.18316	1.08547
2912.25451	1.06057
2910.32587	1.03607
2908.39722	1.01414
2906.46858	0.99606
2904.53993	0.98208
2902.61129	0.97130
2900.68264	0.96219
2898.75399	0.95350
2896.82535	0.94474
2894.89670	0.93608
2892.96806	0.92794
2891.03941	0.92070
2889.11077	0.91441
2887.18212	0.90873
2885.25348	0.90329
2883.32483	0.89816
2881.39619	0.89368
2879.46754	0.88995
2877.53890	0.88678
2875.61025	0.88379
2873.68160	0.88047
2871.75296	0.87633
2869.82431	0.87136
2867.89567	0.86619
2865.96702	0.86179
2864.03838	0.85918
2862.10973	0.85930
2860.18109	0.86257
2858.25244	0.86820
2856.32380	0.87415
2854.39515	0.87755
2852.46651	0.87558
2850.53786	0.86654
2848.60922	0.85081
2846.68057	0.83089
2844.75192	0.81021
2842.82328	0.79163
2840.89463	0.77640
2838.96599	0.76421
2837.03734	0.75378
2835.10870	0.74376
2833.18005	0.73361
2831.25141	0.72389
2829.32276	0.71558
2827.39412	0.70920
2825.46547	0.70455
2823.53683	0.70105
2821.60818	0.69793
2819.67953	0.69438
2817.75089	0.68991
2815.82224	0.68454
2813.89360	0.67855
2811.96495	0.67226
2810.03631	0.66602
2808.10766	0.66030
2806.17902	0.65542
2804.25037	0.65141
2802.32173	0.64807
2800.39308	0.64517
2798.46444	0.64248
2796.53579	0.63988
2794.60714	0.63737
2792.67850	0.63493
2790.74985	0.63247
2788.82121	0.62992
2786.89256	0.62729
2784.96392	0.62469
2783.03527	0.62210
2781.10663	0.61936
2779.17798	0.61623
2777.24934	0.61250
2775.32069	0.60824
2773.39205	0.60391
2771.46340	0.60013
2769.53475	0.59722
2767.60611	0.59501
2765.67746	0.59305
2763.74882	0.59091
2761.82017	0.58841
2759.89153	0.58567
2757.96288	0.58290
2756.03424	0.58020
2754.10559	0.57742
2752.17695	0.57433
2750.24830	0.57096
2748.31966	0.56768
2746.39101	0.56491
2744.46236	0.56281
2742.53372	0.56114
2740.60507	0.55942
2738.67643	0.55727
2736.74778	0.55474
2734.81914	0.55227
2732.89049	0.55039
2730.96185	0.54926
2729.03320	0.54840
2727.10456	0.54700
2725.17591	0.54447
2723.24727	0.54082
2721.31862	0.53665
2719.38998	0.53280
2717.46133	0.52987
2715.53268	0.52795
2713.60404	0.52661
2711.67539	0.52523
2709.74675	0.52344
2707.81810	0.52123
2705.88946	0.51876
2703.96081	0.51623
2702.03217	0.51378
2700.10352	0.51148
2698.17488	0.50911
2696.24623	0.50634
2694.31759	0.50288
2692.38894	0.49862
2690.46029	0.49375
2688.53165	0.48883
2686.60300	0.48464
2684.67436	0.48183
2682.74571	0.48047
2680.81707	0.48006
2678.88842	0.47979
2676.95978	0.47885
2675.03113	0.47691
2673.10249	0.47430
2671.17384	0.47175
2669.24520	0.46992
2667.31655	0.46905
2665.38790	0.46883
2663.45926	0.46847
2661.53061	0.46706
2659.60197	0.46401
2657.67332	0.45942
2655.74468	0.45390
2653.81603	0.44837
2651.88739	0.44364
2649.95874	0.44013
2648.03010	0.43779
2646.10145	0.43618
2644.17281	0.43473
2642.24416	0.43302
2640.31551	0.43103
2638.38687	0.42913
2636.45822	0.42769
2634.52958	0.42689
2632.60093	0.42666
2630.67229	0.42659
2628.74364	0.42612
2626.81500	0.42490
2624.88635	0.42312
2622.95771	0.42120
2621.02906	0.41943
2619.10042	0.41789
2617.17177	0.41645
2615.24312	0.41475
2613.31448	0.41238
2611.38583	0.40930
2609.45719	0.40572
2607.52854	0.40155
2605.59990	0.39666
2603.67125	0.39137
2601.74261	0.38643
2599.81396	0.38254
2597.88532	0.38014
2595.95667	0.37954
2594.02803	0.38054
2592.09938	0.38217
2590.17074	0.38330
2588.24209	0.38346
2586.31344	0.38292
2584.38480	0.38218
2582.45615	0.38170
2580.52751	0.38206
2578.59886	0.38372
2576.67022	0.38647
2574.74157	0.38917
2572.81293	0.39037
2570.88428	0.38920
2568.95564	0.38569
2567.02699	0.38060
2565.09835	0.37530
2563.16970	0.37136
2561.24105	0.36952
2559.31241	0.36911
2557.38376	0.36884
2555.45512	0.36804
2553.52647	0.36674
2551.59783	0.36507
2549.66918	0.36302
2547.74054	0.36054
2545.81189	0.35737
2543.88325	0.35337
2541.95460	0.34933
2540.02596	0.34697
2538.09731	0.34774
2536.16866	0.35165
2534.24002	0.35731
2532.31137	0.36281
2530.38273	0.36642
2528.45408	0.36731
2526.52544	0.36593
2524.59679	0.36376
2522.66815	0.36227
2520.73950	0.36212
2518.81086	0.36290
2516.88221	0.36358
2514.95357	0.36302
2513.02492	0.36042
2511.09627	0.35572
2509.16763	0.34993
2507.23898	0.34480
2505.31034	0.34210
2503.38169	0.34273
2501.45305	0.34616
2499.52440	0.35048
2497.59576	0.35335
2495.66711	0.35331
2493.73847	0.35055
2491.80982	0.34666
2489.88118	0.34377
2487.95253	0.34363
2486.02389	0.34653
2484.09524	0.35095
2482.16659	0.35483
2480.23795	0.35722
2478.30930	0.35873
2476.38066	0.36048
2474.45201	0.36287
2472.52337	0.36521
2470.59472	0.36604
2468.66608	0.36384
2466.73743	0.35800
2464.80879	0.34981
2462.88014	0.34201
2460.95150	0.33716
2459.02285	0.33605
2457.09420	0.33766
2455.16556	0.34021
2453.23691	0.34206
2451.30827	0.34233
2449.37962	0.34121
2447.45098	0.33983
2445.52233	0.33919
2443.59369	0.33940
2441.66504	0.33987
2439.73640	0.34009
2437.80775	0.34015
2435.87911	0.34054
2433.95046	0.34178
2432.02181	0.34398
2430.09317	0.34641
2428.16452	0.34747
2426.23588	0.34564
2424.30723	0.34084
2422.37859	0.33476
2420.44994	0.32972
2418.52130	0.32741
2416.59265	0.32826
2414.66401	0.33126
2412.73536	0.33413
2410.80672	0.33460
2408.87807	0.33207
2406.94942	0.32782
2405.02078	0.32377
2403.09213	0.32144
2401.16349	0.32166
2399.23484	0.32446
2397.30620	0.32886
2395.37755	0.33326
2393.44891	0.33623
2391.52026	0.33692
2389.59162	0.33526
2387.66297	0.33206
2385.73433	0.32915
2383.80568	0.32877
2381.87703	0.33253
2379.94839	0.34040
2378.01974	0.35020
2376.09110	0.35834
2374.16245	0.36153
2372.23381	0.35854
2370.30516	0.35079
2368.37652	0.34153
2366.44787	0.33433
2364.51923	0.33126
2362.59058	0.33166
2360.66194	0.33278
2358.73329	0.33188
2356.80465	0.32787
2354.87600	0.32151
2352.94735	0.31446
2351.01871	0.30815
2349.09006	0.30289
2347.16142	0.29782
2345.23277	0.29186
2343.30413	0.28493
2341.37548	0.27826
2339.44684	0.27397
2337.51819	0.27408
2335.58955	0.27962
2333.66090	0.29002
2331.73226	0.30313
2329.80361	0.31593
2327.87496	0.32556
2325.94632	0.33011
2324.01767	0.32923
2322.08903	0.32418
2320.16038	0.31736
2318.23174	0.31133
2316.30309	0.30777
2314.37445	0.30711
2312.44580	0.30856
2310.51716	0.31058
2308.58851	0.31144
2306.65987	0.30999
2304.73122	0.30613
2302.80257	0.30076
2300.87393	0.29529
2298.94528	0.29110
2297.01664	0.28906
2295.08799	0.28924
2293.15935	0.29077
2291.23070	0.29215
2289.30206	0.29201
2287.37341	0.28986
2285.44477	0.28636
2283.51612	0.28296
2281.58748	0.28129
2279.65883	0.28228
2277.73018	0.28571
2275.80154	0.29026
2273.87289	0.29437
2271.94425	0.29718
2270.01560	0.29870
2268.08696	0.29934
2266.15831	0.29935
2264.22967	0.29862
2262.30102	0.29674
2260.37238	0.29353
2258.44373	0.28940
2256.51509	0.28532
2254.58644	0.28207
2252.65779	0.27932
2250.72915	0.27586
2248.80050	0.27084
2246.87186	0.26465
2244.94321	0.25852
2243.01457	0.25396
2241.08592	0.25254
2239.15728	0.25494
2237.22863	0.25938
2235.29999	0.26199
2233.37134	0.25950
2231.44270	0.25083
2229.51405	0.23626
2227.58541	0.21694
2225.65676	0.19567
2223.72811	0.17647
2221.79947	0.16157
2219.87082	0.15036
2217.94218	0.14188
2216.01353	0.13639
2214.08489	0.13491
2212.15624	0.13955
2210.22760	0.15361
2208.29895	0.17867
2206.37031	0.21140
2204.44166	0.24497
2202.51302	0.27256
2200.58437	0.28845
2198.65572	0.28969
2196.72708	0.27833
2194.79843	0.25976
2192.86979	0.23773
2190.94114	0.21305
2189.01250	0.18714
2187.08385	0.16294
2185.15521	0.14267
2183.22656	0.12827
2181.29792	0.12269
2179.36927	0.12798
2177.44063	0.14219
2175.51198	0.16004
2173.58333	0.17760
2171.65469	0.19267
2169.72604	0.20110
2167.79740	0.19787
2165.86875	0.18104
2163.94011	0.15270
2162.01146	0.11751
2160.08282	0.08266
2158.15417	0.05768
2156.22553	0.04824
2154.29688	0.05059
2152.36824	0.05606
2150.43959	0.05869
2148.51094	0.05807
2146.58230	0.05821
2144.65365	0.06451
2142.72501	0.07949
2140.79636	0.09968
2138.86772	0.11776
2136.93907	0.12807
2135.01043	0.13016
2133.08178	0.12854
2131.15314	0.12931
2129.22449	0.13556
2127.29585	0.14620
2125.36720	0.15874
2123.43856	0.17166
2121.50991	0.18380
2119.58126	0.19396
2117.65262	0.20170
2115.72397	0.20711
2113.79533	0.21014
2111.86668	0.21127
2109.93804	0.21205
2108.00939	0.21376
2106.08075	0.21592
2104.15210	0.21713
2102.22346	0.21666
2100.29481	0.21450
2098.36617	0.21101
2096.43752	0.20711
2094.50887	0.20378
2092.58023	0.20148
2090.65158	0.20013
2088.72294	0.19978
2086.79429	0.20058
2084.86565	0.20229
2082.93700	0.20414
2081.00836	0.20530
2079.07971	0.20517
2077.15107	0.20343
2075.22242	0.19994
2073.29378	0.19488
2071.36513	0.18894
2069.43648	0.18344
2067.50784	0.18002
2065.57919	0.18011
2063.65055	0.18414
2061.72190	0.19092
2059.79326	0.19752
2057.86461	0.20019
2055.93597	0.19604
2054.00732	0.18453
2052.07868	0.16789
2050.15003	0.15009
2048.22139	0.13530
2046.29274	0.12678
2044.36409	0.12669
2042.43545	0.13594
2040.50680	0.15393
2038.57816	0.17800
2036.64951	0.20317
2034.72087	0.22212
2032.79222	0.22672
2030.86358	0.21163
2028.93493	0.17793
2027.00629	0.13387
2025.07764	0.09218
2023.14900	0.06565
2021.22035	0.06256
2019.29170	0.08317
2017.36306	0.11923
2015.43441	0.15733
2013.50577	0.18388
2011.57712	0.18932
2009.64848	0.17075
2007.71983	0.13295
2005.79119	0.08673
2003.86254	0.04492
2001.93390	0.01821
2000.00525	0.01248
1998.07661	0.02790
1996.14796	0.05953
1994.21932	0.09973
1992.29067	0.14022
1990.36202	0.17534
1988.43338	0.20123
1986.50473	0.21623
1984.57609	0.22093
1982.64744	0.21769
1980.71880	0.20984
1978.79015	0.20082
1976.86151	0.19283
1974.93286	0.18625
1973.00422	0.18025
1971.07557	0.17394
1969.14693	0.16692
1967.21828	0.15954
1965.28963	0.15276
1963.36099	0.14760
1961.43234	0.14448
1959.50370	0.14349
1957.57505	0.14511
1955.64641	0.15024
1953.71776	0.15937
1951.78912	0.17160
1949.86047	0.18457
1947.93183	0.19521
1946.00318	0.20111
1944.07454	0.20142
1942.14589	0.19726
1940.21724	0.19119
1938.28860	0.18597
1936.35995	0.18335
1934.43131	0.18358
1932.50266	0.18566
1930.57402	0.18785
1928.64537	0.18825
1926.71673	0.18558
1924.78808	0.17997
1922.85944	0.17321
1920.93079	0.16822
1919.00215	0.16797
1917.07350	0.17401
1915.14485	0.18546
1913.21621	0.19913
1911.28756	0.21080
1909.35892	0.21694
1907.43027	0.21603
1905.50163	0.20898
1903.57298	0.19874
1901.64434	0.18898
1899.71569	0.18270
1897.78705	0.18120
1895.85840	0.18387
1893.92976	0.18866
1892.00111	0.19295
1890.07246	0.19466
1888.14382	0.19320
1886.21517	0.18966
1884.28653	0.18604
1882.35788	0.18411
1880.42924	0.18461
1878.50059	0.18709
1876.57195	0.19030
1874.64330	0.19291
1872.71466	0.19412
1870.78601	0.19385
1868.85737	0.19250
1866.92872	0.19057
1865.00008	0.18860
1863.07143	0.18717
1861.14278	0.18683
1859.21414	0.18783
1857.28549	0.18999
1855.35685	0.19268
1853.42820	0.19507
1851.49956	0.19648
1849.57091	0.19669
1847.64227	0.19601
1845.71362	0.19497
1843.78498	0.19402
1841.85633	0.19332
1839.92769	0.19275
1837.99904	0.19216
1836.07039	0.19156
1834.14175	0.19119
1832.21310	0.19140
1830.28446	0.19240
1828.35581	0.19416
1826.42717	0.19640
1824.49852	0.19874
1822.56988	0.20079
1820.64123	0.20233
1818.71259	0.20336
1816.78394	0.20396
1814.85530	0.20425
1812.92665	0.20436
1810.99800	0.20440
1809.06936	0.20449
1807.14071	0.20466
1805.21207	0.20490
1803.28342	0.20527
1801.35478	0.20585
1799.42613	0.20670
1797.49749	0.20774
1795.56884	0.20880
1793.64020	0.20960
1791.71155	0.20987
1789.78291	0.20964
1787.85426	0.20931
1785.92561	0.20955
1783.99697	0.21100
1782.06832	0.21398
1780.13968	0.21838
1778.21103	0.22364
1776.28239	0.22906
1774.35374	0.23414
1772.42510	0.23874
1770.49645	0.24301
1768.56781	0.24719
1766.63916	0.25146
1764.71052	0.25583
1762.78187	0.26021
1760.85322	0.26463
1758.92458	0.26924
1756.99593	0.27438
1755.06729	0.28037
1753.13864	0.28740
1751.21000	0.29550
1749.28135	0.30460
1747.35271	0.31479
1745.42406	0.32630
1743.49542	0.33931
1741.56677	0.35363
1739.63813	0.36856
1737.70948	0.38295
1735.78084	0.39547
1733.85219	0.40516
1731.92354	0.41199
1729.99490	0.41714
1728.06625	0.42259
1726.13761	0.43032
1724.20896	0.44157
1722.28032	0.45632
1720.35167	0.47329
1718.42303	0.49056
1716.49438	0.50657
1714.56574	0.52095
1712.63709	0.53461
1710.70845	0.54920
1708.77980	0.56620
1706.85115	0.58611
1704.92251	0.60825
1702.99386	0.63109
1701.06522	0.65304
1699.13657	0.67322
1697.20793	0.69188
1695.27928	0.71021
1693.35064	0.72975
1691.42199	0.75163
1689.49335	0.77614
1687.56470	0.80271
1685.63606	0.83032
1683.70741	0.85799
1681.77876	0.88533
1679.85012	0.91261
1677.92147	0.94041
1675.99283	0.96917
1674.06418	0.99887
1672.13554	1.02913
1670.20689	1.05944
1668.27825	1.08952
1666.34960	1.11956
1664.42096	1.15017
1662.49231	1.18194
1660.56367	1.21495
1658.63502	1.24857
1656.70637	1.28146
1654.77773	1.31194
1652.84908	1.33849
1650.92044	1.36031
1648.99179	1.37764
1647.06315	1.39155
1645.13450	1.40339
1643.20586	1.41430
1641.27721	1.42479
1639.34857	1.43453
1637.41992	1.44257
1635.49128	1.44775
1633.56263	1.44927
1631.63399	1.44699
1629.70534	1.44150
1627.77669	1.43402
1625.84805	1.42595
1623.91940	1.41848
1621.99076	1.41225
1620.06211	1.40727
1618.13347	1.40313
1616.20482	1.39939
1614.27618	1.39592
1612.34753	1.39307
1610.41889	1.39148
1608.49024	1.39175
1606.56160	1.39418
1604.63295	1.39861
1602.70430	1.40446
1600.77566	1.41094
1598.84701	1.41732
1596.91837	1.42312
1594.98972	1.42809
1593.06108	1.43223
1591.13243	1.43580
1589.20379	1.43927
1587.27514	1.44329
1585.34650	1.44847
1583.41785	1.45518
1581.48921	1.46335
1579.56056	1.47241
1577.63191	1.48133
1575.70327	1.48894
1573.77462	1.49435
1571.84598	1.49732
1569.91733	1.49819
1567.98869	1.49753
1566.06004	1.49561
1564.13140	1.49201
1562.20275	1.48550
1560.27411	1.47445
1558.34546	1.45753
1556.41682	1.43437
1554.48817	1.40586
1552.55952	1.37372
1550.63088	1.33988
1548.70223	1.30574
1546.77359	1.27178
1544.84494	1.23765
1542.91630	1.20267
1540.98765	1.16646
1539.05901	1.12941
1537.13036	1.09286
1535.20172	1.05868
1533.27307	1.02878
1531.34443	1.00447
1529.41578	0.98608
1527.48713	0.97286
1525.55849	0.96311
1523.62984	0.95460
1521.70120	0.94514
1519.77255	0.93308
1517.84391	0.91754
1515.91526	0.89842
1513.98662	0.87616
1512.05797	0.85143
1510.12933	0.82484
1508.20068	0.79689
1506.27204	0.76805
1504.34339	0.73893
1502.41475	0.71034
1500.48610	0.68309
1498.55745	0.65780
1496.62881	0.63478
1494.70016	0.61403
1492.77152	0.59535
1490.84287	0.57851
1488.91423	0.56344
1486.98558	0.55040
1485.05694	0.54005
1483.12829	0.53335
1481.19965	0.53139
1479.27100	0.53508
1477.34236	0.54471
1475.41371	0.55969
1473.48506	0.57850
1471.55642	0.59899
1469.62777	0.61901
1467.69913	0.63689
1465.77048	0.65167
1463.84184	0.66308
1461.91319	0.67128
1459.98455	0.67657
1458.05590	0.67910
1456.12726	0.67883
1454.19861	0.67582
1452.26997	0.67042
1450.34132	0.66348
1448.41267	0.65634
1446.48403	0.65070
1444.55538	0.64821
1442.62674	0.65004
1440.69809	0.65664
1438.76945	0.66787
1436.84080	0.68329
1434.91216	0.70261
1432.98351	0.72590
1431.05487	0.75341
1429.12622	0.78523
1427.19758	0.82077
1425.26893	0.85856
1423.34028	0.89646
1421.41164	0.93219
1419.48299	0.96389
1417.55435	0.99051
1415.62570	1.01183
1413.69706	1.02819
1411.76841	1.04012
1409.83977	1.04813
1407.91112	1.05259
1405.98248	1.05379
1404.05383	1.05194
1402.12519	1.04713
1400.19654	1.03931
1398.26789	1.02831
1396.33925	1.01404
1394.41060	0.99656
1392.48196	0.97627
1390.55331	0.95389
1388.62467	0.93026
1386.69602	0.90616
1384.76738	0.88217
1382.83873	0.85865
1380.91009	0.83572
1378.98144	0.81336
1377.05280	0.79150
1375.12415	0.77016
1373.19551	0.74954
1371.26686	0.73005
1369.33821	0.71224
1367.40957	0.69663
1365.48092	0.68351
1363.55228	0.67277
1361.62363	0.66398
1359.69499	0.65647
1357.76634	0.64952
1355.83770	0.64257
1353.90905	0.63536
1351.98041	0.62790
1350.05176	0.62043
1348.12312	0.61322
1346.19447	0.60645
1344.26582	0.60009
1342.33718	0.59392
1340.40853	0.58774
1338.47989	0.58147
1336.55124	0.57524
1334.62260	0.56935
1332.69395	0.56404
1330.76531	0.55933
1328.83666	0.55503
1326.90802	0.55081
1324.97937	0.54642
1323.05073	0.54185
1321.12208	0.53735
1319.19343	0.53335
1317.26479	0.53031
1315.33614	0.52855
1313.40750	0.52815
1311.47885	0.52901
1309.55021	0.53096
1307.62156	0.53388
1305.69292	0.53777
1303.76427	0.54265
1301.83563	0.54839
1299.90698	0.55446
1297.97834	0.56000
1296.04969	0.56401
1294.12104	0.56575
1292.19240	0.56514
1290.26375	0.56286
1288.33511	0.55999
1286.40646	0.55759
1284.47782	0.55624
1282.54917	0.55596
1280.62053	0.55643
1278.69188	0.55729
1276.76324	0.55843
1274.83459	0.56004
1272.90595	0.56233
1270.97730	0.56529
1269.04866	0.56863
1267.12001	0.57183
1265.19136	0.57434
1263.26272	0.57572
1261.33407	0.57578
1259.40543	0.57462
1257.47678	0.57252
1255.54814	0.56991
1253.61949	0.56724
1251.69085	0.56495
1249.76220	0.56337
1247.83356	0.56272
1245.90491	0.56311
1243.97627	0.56457
1242.04762	0.56705
1240.11897	0.57038
1238.19033	0.57427
1236.26168	0.57838
1234.33304	0.58243
1232.40439	0.58626
1230.47575	0.58976
1228.54710	0.59289
1226.61846	0.59555
1224.68981	0.59761
1222.76117	0.59890
1220.83252	0.59931
1218.90388	0.59885
1216.97523	0.59762
1215.04658	0.59580
1213.11794	0.59366
1211.18929	0.59153
1209.26065	0.58979
1207.33200	0.58880
1205.40336	0.58884
1203.47471	0.59022
1201.54607	0.59321
1199.61742	0.59812
1197.68878	0.60527
1195.76013	0.61496
1193.83149	0.62734
1191.90284	0.64223
1189.97419	0.65922
1188.04555	0.67789
1186.11690	0.69787
1184.18826	0.71885
1182.25961	0.74065
1180.33097	0.76338
1178.40232	0.78737
1176.47368	0.81300
1174.54503	0.84065
1172.61639	0.87065
1170.68774	0.90302
1168.75910	0.93715
1166.83045	0.97205
1164.90180	1.00681
1162.97316	1.04091
1161.04451	1.07427
1159.11587	1.10710
1157.18722	1.13959
1155.25858	1.17171
1153.32993	1.20314
1151.40129	1.23363
1149.47264	1.26332
1147.54400	1.29293
1145.61535	1.32365
1143.68671	1.35660
1141.75806	1.39243
1139.82942	1.43126
1137.90077	1.47282
1135.97212	1.51659
1134.04348	1.56166
1132.11483	1.60674
1130.18619	1.65038
1128.25754	1.69116
1126.32890	1.72785
1124.40025	1.75959
1122.47161	1.78639
1120.54296	1.80914
1118.61432	1.82894
1116.68567	1.84664
1114.75703	1.86283
1112.82838	1.87775
1110.89973	1.89112
1108.97109	1.90228
1107.04244	1.91098
1105.11380	1.91781
1103.18515	1.92400
1101.25651	1.93073
1099.32786	1.93882
1097.39922	1.94863
1095.47057	1.95976
1093.54193	1.97117
1091.61328	1.98172
1089.68464	1.99057
1087.75599	1.99701
1085.82734	2.00000
1083.89870	1.99850
1081.97005	1.99212
1080.04141	1.98117
1078.11276	1.96627
1076.18412	1.94814
1074.25547	1.92734
1072.32683	1.90406
1070.39818	1.87815
1068.46954	1.84961
1066.54089	1.81895
1064.61225	1.78686
1062.68360	1.75392
1060.75495	1.72049
1058.82631	1.68689
1056.89766	1.65350
1054.96902	1.62049
1053.04037	1.58772
1051.11173	1.55497
1049.18308	1.52221
1047.25444	1.48977
1045.32579	1.45847
1043.39715	1.42950
1041.46850	1.40378
1039.53986	1.38124
1037.61121	1.36075
1035.68256	1.34093
1033.75392	1.32083
1031.82527	1.30007
1029.89663	1.27875
1027.96798	1.25720
1026.03934	1.23564
1024.11069	1.21400
1022.18205	1.19217
1020.25340	1.17029
1018.32476	1.14876
1016.39611	1.12795
1014.46747	1.10818
1012.53882	1.08956
1010.61018	1.07196
1008.68153	1.05527
1006.75288	1.03977
1004.82424	1.02607
1002.89559	1.01475
1000.96695	1.00611
999.03830	0.99999
997.10966	0.99568
995.18101	0.99206
993.25237	0.98797
991.32372	0.98252
989.39508	0.97502
987.46643	0.96488
985.53779	0.95127
983.60914	0.93310
981.68049	0.90933
979.75185	0.87982
977.82320	0.84582
975.89456	0.80973
973.96591	0.77436
972.03727	0.74228
970.10862	0.71479
968.17998	0.69142
966.25133	0.67027
964.32269	0.64938
962.39404	0.62761
960.46540	0.60472
958.53675	0.58132
956.60810	0.55892
954.67946	0.53927
952.75081	0.52360
950.82217	0.51215
948.89352	0.50413
946.96488	0.49800
945.03623	0.49199
943.10759	0.48482
941.17894	0.47627
939.25030	0.46700
937.32165	0.45813
935.39301	0.45063
933.46436	0.44482
931.53571	0.44037
929.60707	0.43671
927.67842	0.43332
925.74978	0.42974
923.82113	0.42534
921.89249	0.41950
919.96384	0.41212
918.03520	0.40385
916.10655	0.39597
914.17791	0.39010
912.24926	0.38760
910.32062	0.38878
908.39197	0.39244
906.46333	0.39666
904.53468	0.39990
902.60603	0.40159
900.67739	0.40221
898.74874	0.40294
896.82010	0.40497
894.89145	0.40854
892.96281	0.41298
891.03416	0.41756
889.10552	0.42169
887.17687	0.42486
885.24823	0.42703
883.31958	0.42888
881.39094	0.43120
879.46229	0.43422
877.53364	0.43778
875.60500	0.44144
873.67635	0.44410
871.74771	0.44397
869.81906	0.43968
867.89042	0.43141
865.96177	0.42072
864.03313	0.40990
862.10448	0.40149
860.17584	0.39762
858.24719	0.39901
856.31855	0.40438
854.38990	0.41096
852.46125	0.41581
850.53261	0.41683
848.60396	0.41312
846.67532	0.40520
844.74667	0.39506
842.81803	0.38519
840.88938	0.37731
838.96074	0.37163
837.03209	0.36733
835.10345	0.36326
833.17480	0.35840
831.24616	0.35218
829.31751	0.34509
827.38886	0.33868
825.46022	0.33477
823.53157	0.33444
821.60293	0.33761
819.67428	0.34291
817.74564	0.34806
815.81699	0.35075
813.88835	0.34997
811.95970	0.34681
810.03106	0.34401
808.10241	0.34467
806.17377	0.35081
804.24512	0.36261
802.31647	0.37839
800.38783	0.39516
798.45918	0.40965
796.53054	0.41911
794.60189	0.42213
792.67325	0.41913
790.74460	0.41220
788.81596	0.40430
786.88731	0.39833
784.95867	0.39617
783.03002	0.39784
781.10138	0.40163
779.17273	0.40526
777.24409	0.40695
775.31544	0.40559
773.38679	0.40084
771.45815	0.39348
769.52950	0.38511
767.60086	0.37755
765.67221	0.37250
763.74357	0.37132
761.81492	0.37431
759.88628	0.38029
757.95763	0.38718
756.02899	0.39267
754.10034	0.39462
752.17170	0.39191
750.24305	0.38543
748.31440	0.37789
746.38576	0.37260
744.45711	0.37205
742.52847	0.37693
740.59982	0.38536
738.67118	0.39355
736.74253	0.39798
734.81389	0.39761
732.88524	0.39419
730.95660	0.39100
729.02795	0.39086
727.09931	0.39465
725.17066	0.40105
723.24201	0.40749
721.31337	0.41156
719.38472	0.41227
717.45608	0.41033
715.52743	0.40751
713.59879	0.40554
711.67014	0.40540
709.74150	0.40718
707.81285	0.41040
705.88421	0.41426
703.95556	0.41816
702.02692	0.42196
700.09827	0.42581
698.16962	0.42994
696.24098	0.43431
694.31233	0.43863
692.38369	0.44247
690.45504	0.44550
688.52640	0.44770
686.59775	0.44938
684.66911	0.45087
682.74046	0.45245
680.81182	0.45426
678.88317	0.45631
676.95453	0.45852
675.02588	0.46080
673.09723	0.46309
671.16859	0.46539
669.23994	0.46767
667.31130	0.46995
665.38265	0.47233
663.45401	0.47492
661.52536	0.47779
659.59672	0.48075
657.66807	0.48339
655.73943	0.48525
653.81078	0.48628
651.88214	0.48704
649.95349	0.48844
648.02485	0.49126
646.09620	0.49562
644.16755	0.50071
642.23891	0.50504
640.31026	0.50727
638.38162	0.50695
636.45297	0.50468
634.52433	0.50181
632.59568	0.50026
630.66704	0.50288
628.73839	0.51371
626.80975	0.53636
624.88110	0.57020
622.95246	0.60763
621.02381	0.63553
619.09516	0.64021
617.16652	0.61391
615.23787	0.56081
613.30923	0.49867
611.38058	0.45191
609.45194	0.43887
607.52329	0.46280
605.59465	0.51223
603.66600	0.56730
601.73736	0.60828
599.80871	0.62411
597.88007	0.61649
595.95142	0.59650
594.02277	0.57704
592.09413	0.56707
590.16548	0.56995
588.23684	0.58396
586.30819	0.60415
584.37955	0.62514
582.45090	0.64326
580.52226	0.65701
578.59361	0.66631
576.66497	0.67173
574.73632	0.67423
572.80768	0.67532
570.87903	0.67701
568.95038	0.68149
567.02174	0.69047
565.09309	0.70432
563.16445	0.72180
561.23580	0.74039
559.30716	0.75743
557.37851	0.77128
555.44987	0.78182
553.52122	0.79011
551.59258	0.79776
549.66393	0.80626
547.73529	0.81667
545.80664	0.82934
543.87800	0.84388
541.94935	0.85910
540.02070	0.87325
538.09206	0.88430
536.16341	0.89048
534.23477	0.89080
532.30612	0.88557
530.37748	0.87622
528.44883	0.86455
526.52019	0.85175
524.59154	0.83790
522.66290	0.82182
520.73425	0.80132
518.80561	0.77409
516.87696	0.73915
514.94831	0.69801
513.01967	0.65456
511.09102	0.61406
509.16238	0.58148
507.23373	0.55956
505.30509	0.54772
503.37644	0.54257
501.44780	0.53989
499.51915	0.53661
497.59051	0.53169
495.66186	0.52589
493.73322	0.52085
491.80457	0.51819
489.87592	0.51881
487.94728	0.52288
486.01863	0.53015
484.08999	0.54003
482.16134	0.55130
480.23270	0.56221
478.30405	0.57120
476.37541	0.57771
474.44676	0.58231
472.51812	0.58609
470.58947	0.58997
468.66083	0.59398
466.73218	0.59693
464.80353	0.59674
462.87489	0.59152
460.94624	0.58049
459.01760	0.56432
457.08895	0.54493
455.16031	0.52508
453.23166	0.50763
451.30302	0.49432
449.37437	0.48490
447.44573	0.47744
445.51708	0.46933
443.58844	0.45858
441.65979	0.44469
439.73114	0.42902
437.80250	0.41392
435.87385	0.40102
433.94521	0.39024
432.01656	0.38022
430.08792	0.36960
428.15927	0.35807
426.23063	0.34666
424.30198	0.33712
422.37334	0.33065
420.44469	0.32659
418.51605	0.32233
416.58740	0.31471
414.65876	0.30182
412.73011	0.28432
410.80146	0.26547
408.87282	0.24998
406.94417	0.24188
405.01553	0.24250
403.08688	0.24954
401.15824	0.25788
399.22959	0.26166
397.30095	0.25674
395.37230	0.24236
393.44366	0.22124
391.51501	0.19809
389.58637	0.17766
387.65772	0.16307
385.72907	0.15511
383.80043	0.15262
381.87178	0.15360
379.94314	0.15630
378.01449	0.15975
376.08585	0.16353
374.15720	0.16731
372.22856	0.17035
370.29991	0.17136
368.37127	0.16907
366.44262	0.16298
364.51398	0.15390
362.58533	0.14387
360.65668	0.13532
358.72804	0.12992
356.79939	0.12752
354.87075	0.12620
352.94210	0.12330
351.01346	0.11682
349.08481	0.10632
347.15617	0.09315
345.22752	0.07986
343.29888	0.06912
341.37023	0.06255
339.44159	0.06035
337.51294	0.06173
335.58429	0.06538
333.65565	0.06960
331.72700	0.07233
329.79836	0.07153
327.86971	0.06601
325.94107	0.05552
324.01242	0.04092
322.08378	0.02505
320.15513	0.01140
318.22649	0.00268
316.29784	0.00000
314.36920	0.00306
312.44055	0.01079
310.51190	0.02158
308.58326	0.03314
306.65461	0.04256
304.72597	0.04694
302.79732	0.04446
300.86868	0.03563
298.94003	0.02373
297.01139	0.01385
295.08274	0.01055
293.15410	0.01571
291.22545	0.02770
289.29681	0.04256
287.36816	0.05603
285.43952	0.06529
283.51087	0.06928
281.58222	0.06836
279.65358	0.06372
277.72493	0.05688
275.79629	0.04937
273.86764	0.04269
271.93900	0.03825
270.01035	0.03665
268.08171	0.03710
266.15306	0.03789
264.22442	0.03799
262.29577	0.03820
260.36713	0.04099
258.43848	0.04923
256.50983	0.06409
254.58119	0.08376
252.65254	0.10393
250.72390	0.12018
248.79525	0.13063
246.86661	0.13698
244.93796	0.14344
243.00932	0.15394
241.08067	0.16945
239.15203	0.18723
237.22338	0.20231
235.29474	0.21027
233.36609	0.20942
231.43744	0.20159
229.50880	0.19129
227.58015	0.18390
225.65151	0.18351
223.72286	0.19130
221.79422	0.20506
219.86557	0.21992
217.93693	0.23013
216.00828	0.23169
214.07964	0.22471
212.15099	0.21327
210.22235	0.20323
208.29370	0.19940
206.36505	0.20381
204.43641	0.21574
202.50776	0.23348
200.57912	0.25622
198.65047	0.28386
196.72183	0.31466
194.79318	0.34361
192.86454	0.36354
190.93589	0.36852
189.00725	0.35722
187.07860	0.33422
185.14996	0.30840
183.22131	0.28927
181.29267	0.28404
179.36402	0.29657
177.43537	0.32763
175.50673	0.37512
173.57808	0.43419
171.64944	0.49765
169.72079	0.55787
167.79215	0.60959
165.86350	0.65098
163.93486	0.68219
162.00621	0.70429
160.07757	0.71939
158.14892	0.72888
156.22028	0.73326
154.29163	0.73326
152.36298	0.73326
150.43434	0.73326
148.50569	0.73326
