4497.60101	0.03899
4495.67236	0.03899
4493.74372	0.03899
4491.81507	0.03899
4489.88643	0.03899
4487.95778	0.03766
4486.02914	0.03546
4484.10049	0.03273
4482.17185	0.02985
4480.24320	0.02715
4478.31455	0.02507
4476.38591	0.02343
4474.45726	0.02245
4472.52862	0.02280
4470.59997	0.02475
4468.67133	0.02782
4466.74268	0.03098
4464.81404	0.03317
4462.88539	0.03382
4460.95675	0.03326
4459.02810	0.03260
4457.09946	0.03287
4455.17081	0.03406
4453.24216	0.03509
4451.31352	0.03474
4449.38487	0.03255
4447.45623	0.02906
4445.52758	0.02552
4443.59894	0.02325
4441.67029	0.02305
4439.74165	0.02491
4437.81300	0.02795
4435.88436	0.03089
4433.95571	0.03266
4432.02707	0.03275
4430.09842	0.03125
4428.16978	0.02867
4426.24113	0.02587
4424.31248	0.02380
4422.38384	0.02282
4420.45519	0.02264
4418.52655	0.02279
4416.59790	0.02316
4414.66926	0.02370
4412.74061	0.02417
4410.81197	0.02443
4408.88332	0.02443
4406.95468	0.02395
4405.02603	0.02272
4403.09739	0.02122
4401.16874	0.02053
4399.24009	0.02124
4397.31145	0.02300
4395.38280	0.02528
4393.45416	0.02784
4391.52551	0.03043
4389.59687	0.03279
4387.66822	0.03499
4385.73958	0.03709
4383.81093	0.03855
4381.88229	0.03861
4379.95364	0.03707
4378.02500	0.03427
4376.09635	0.03070
4374.16770	0.02715
4372.23906	0.02463
4370.31041	0.02381
4368.38177	0.02444
4366.45312	0.02581
4364.52448	0.02726
4362.59583	0.02823
4360.66719	0.02829
4358.73854	0.02741
4356.80990	0.02607
4354.88125	0.02473
4352.95261	0.02349
4351.02396	0.02236
4349.09531	0.02173
4347.16667	0.02219
4345.23802	0.02380
4343.30938	0.02588
4341.38073	0.02766
4339.45209	0.02865
4337.52344	0.02858
4335.59480	0.02738
4333.66615	0.02556
4331.73751	0.02384
4329.80886	0.02259
4327.88022	0.02196
4325.95157	0.02241
4324.02292	0.02451
4322.09428	0.02818
4320.16563	0.03260
4318.23699	0.03653
4316.30834	0.03882
4314.37970	0.03866
4312.45105	0.03622
4310.52241	0.03286
4308.59376	0.03029
4306.66512	0.02942
4304.73647	0.03004
4302.80783	0.03120
4300.87918	0.03178
4298.95054	0.03103
4297.02189	0.02910
4295.09324	0.02704
4293.16460	0.02611
4291.23595	0.02708
4289.30731	0.02996
4287.37866	0.03396
4285.45002	0.03779
4283.52137	0.04019
4281.59273	0.04038
4279.66408	0.03837
4277.73544	0.03496
4275.80679	0.03155
4273.87815	0.02936
4271.94950	0.02868
4270.02085	0.02892
4268.09221	0.02907
4266.16356	0.02838
4264.23492	0.02675
4262.30627	0.02488
4260.37763	0.02374
4258.44898	0.02384
4256.52034	0.02483
4254.59169	0.02584
4252.66305	0.02604
4250.73440	0.02522
4248.80576	0.02374
4246.87711	0.02232
4244.94846	0.02151
4243.01982	0.02135
4241.09117	0.02141
4239.16253	0.02106
4237.23388	0.02003
4235.30524	0.01871
4233.37659	0.01797
4231.44795	0.01859
4229.51930	0.02070
4227.59066	0.02365
4225.66201	0.02640
4223.73337	0.02801
4221.80472	0.02811
4219.87607	0.02704
4217.94743	0.02570
4216.01878	0.02490
4214.09014	0.02471
4212.16149	0.02439
4210.23285	0.02317
4208.30420	0.02091
4206.37556	0.01815
4204.44691	0.01574
4202.51827	0.01452
4200.58962	0.01493
4198.66098	0.01654
4196.73233	0.01827
4194.80368	0.01919
4192.87504	0.01911
4190.94639	0.01844
4189.01775	0.01766
4187.08910	0.01707
4185.16046	0.01683
4183.23181	0.01685
4181.30317	0.01679
4179.37452	0.01644
4177.44588	0.01586
4175.51723	0.01517
4173.58859	0.01443
4171.65994	0.01372
4169.73130	0.01328
4167.80265	0.01319
4165.87400	0.01341
4163.94536	0.01395
4162.01671	0.01480
4160.08807	0.01583
4158.15942	0.01682
4156.23078	0.01761
4154.30213	0.01817
4152.37349	0.01839
4150.44484	0.01818
4148.51620	0.01766
4146.58755	0.01711
4144.65891	0.01681
4142.73026	0.01696
4140.80161	0.01761
4138.87297	0.01857
4136.94432	0.01934
4135.01568	0.01933
4133.08703	0.01826
4131.15839	0.01637
4129.22974	0.01450
4127.30110	0.01381
4125.37245	0.01508
4123.44381	0.01809
4121.51516	0.02177
4119.58652	0.02483
4117.65787	0.02634
4115.72922	0.02623
4113.80058	0.02537
4111.87193	0.02495
4109.94329	0.02564
4108.01464	0.02711
4106.08600	0.02840
4104.15735	0.02867
4102.22871	0.02755
4100.30006	0.02519
4098.37142	0.02204
4096.44277	0.01879
4094.51413	0.01621
4092.58548	0.01471
4090.65683	0.01432
4088.72819	0.01489
4086.79954	0.01619
4084.87090	0.01769
4082.94225	0.01874
4081.01361	0.01898
4079.08496	0.01858
4077.15632	0.01784
4075.22767	0.01699
4073.29903	0.01633
4071.37038	0.01625
4069.44174	0.01695
4067.51309	0.01822
4065.58444	0.01957
4063.65580	0.02056
4061.72715	0.02093
4059.79851	0.02073
4057.86986	0.02026
4055.94122	0.01980
4054.01257	0.01941
4052.08393	0.01889
4050.15528	0.01811
4048.22664	0.01712
4046.29799	0.01636
4044.36935	0.01644
4042.44070	0.01777
4040.51206	0.02001
4038.58341	0.02232
4036.65476	0.02386
4034.72612	0.02410
4032.79747	0.02287
4030.86883	0.02054
4028.94018	0.01798
4027.01154	0.01611
4025.08289	0.01535
4023.15425	0.01567
4021.22560	0.01668
4019.29696	0.01773
4017.36831	0.01817
4015.43967	0.01788
4013.51102	0.01730
4011.58237	0.01694
4009.65373	0.01736
4007.72508	0.01884
4005.79644	0.02113
4003.86779	0.02347
4001.93915	0.02511
4000.01050	0.02581
3998.08186	0.02572
3996.15321	0.02517
3994.22457	0.02451
3992.29592	0.02391
3990.36728	0.02319
3988.43863	0.02201
3986.50998	0.02030
3984.58134	0.01837
3982.65269	0.01680
3980.72405	0.01618
3978.79540	0.01680
3976.86676	0.01849
3974.93811	0.02064
3973.00947	0.02252
3971.08082	0.02355
3969.15218	0.02356
3967.22353	0.02274
3965.29489	0.02148
3963.36624	0.02016
3961.43759	0.01898
3959.50895	0.01803
3957.58030	0.01739
3955.65166	0.01715
3953.72301	0.01740
3951.79437	0.01808
3949.86572	0.01894
3947.93708	0.01962
3946.00843	0.01987
3944.07979	0.01967
3942.15114	0.01937
3940.22250	0.01943
3938.29385	0.02025
3936.36521	0.02186
3934.43656	0.02394
3932.50791	0.02581
3930.57927	0.02670
3928.65062	0.02610
3926.72198	0.02413
3924.79333	0.02151
3922.86469	0.01928
3920.93604	0.01833
3919.00740	0.01906
3917.07875	0.02113
3915.15011	0.02353
3913.22146	0.02508
3911.29282	0.02498
3909.36417	0.02309
3907.43552	0.01983
3905.50688	0.01596
3903.57823	0.01230
3901.64959	0.00947
3899.72094	0.00774
3897.79230	0.00709
3895.86365	0.00732
3893.93501	0.00816
3892.00636	0.00933
3890.07772	0.01058
3888.14907	0.01172
3886.22043	0.01264
3884.29178	0.01319
3882.36313	0.01315
3880.43449	0.01232
3878.50584	0.01065
3876.57720	0.00834
3874.64855	0.00592
3872.71991	0.00408
3870.79126	0.00342
3868.86262	0.00407
3866.93397	0.00547
3865.00533	0.00661
3863.07668	0.00655
3861.14804	0.00491
3859.21939	0.00215
3857.29074	-0.00059
3855.36210	-0.00209
3853.43345	-0.00155
3851.50481	0.00100
3849.57616	0.00475
3847.64752	0.00857
3845.71887	0.01160
3843.79023	0.01340
3841.86158	0.01394
3839.93294	0.01340
3838.00429	0.01200
3836.07565	0.01000
3834.14700	0.00765
3832.21835	0.00525
3830.28971	0.00322
3828.36106	0.00202
3826.43242	0.00184
3824.50377	0.00260
3822.57513	0.00398
3820.64648	0.00559
3818.71784	0.00702
3816.78919	0.00798
3814.86055	0.00837
3812.93190	0.00820
3811.00326	0.00764
3809.07461	0.00692
3807.14597	0.00630
3805.21732	0.00603
3803.28867	0.00633
3801.36003	0.00736
3799.43138	0.00906
3797.50274	0.01114
3795.57409	0.01315
3793.64545	0.01463
3791.71680	0.01523
3789.78816	0.01485
3787.85951	0.01379
3785.93087	0.01265
3784.00222	0.01209
3782.07358	0.01252
3780.14493	0.01397
3778.21628	0.01606
3776.28764	0.01812
3774.35899	0.01949
3772.43035	0.01970
3770.50170	0.01864
3768.57306	0.01659
3766.64441	0.01404
3764.71577	0.01154
3762.78712	0.00944
3760.85848	0.00787
3758.92983	0.00670
3757.00119	0.00565
3755.07254	0.00435
3753.14389	0.00263
3751.21525	0.00068
3749.28660	-0.00104
3747.35796	-0.00194
3745.42931	-0.00162
3743.50067	0.00000
3741.57202	0.00248
3739.64338	0.00513
3737.71473	0.00733
3735.78609	0.00880
3733.85744	0.00966
3731.92880	0.01029
3730.00015	0.01109
3728.07150	0.01221
3726.14286	0.01353
3724.21421	0.01480
3722.28557	0.01580
3720.35692	0.01651
3718.42828	0.01716
3716.49963	0.01822
3714.57099	0.02010
3712.64234	0.02286
3710.71370	0.02615
3708.78505	0.02930
3706.85641	0.03157
3704.92776	0.03258
3702.99911	0.03251
3701.07047	0.03198
3699.14182	0.03161
3697.21318	0.03177
3695.28453	0.03245
3693.35589	0.03352
3691.42724	0.03497
3689.49860	0.03707
3687.56995	0.04020
3685.64131	0.04440
3683.71266	0.04916
3681.78402	0.05352
3679.85537	0.05659
3677.92673	0.05808
3675.99808	0.05867
3674.06943	0.05973
3672.14079	0.06272
3670.21214	0.06838
3668.28350	0.07647
3666.35485	0.08590
3664.42621	0.09521
3662.49756	0.10320
3660.56892	0.10944
3658.64027	0.11440
3656.71163	0.11907
3654.78298	0.12448
3652.85434	0.13137
3650.92569	0.13997
3648.99704	0.15000
3647.06840	0.16079
3645.13975	0.17168
3643.21111	0.18229
3641.28246	0.19252
3639.35382	0.20246
3637.42517	0.21225
3635.49653	0.22212
3633.56788	0.23221
3631.63924	0.24265
3629.71059	0.25357
3627.78195	0.26515
3625.85330	0.27748
3623.92465	0.29048
3621.99601	0.30392
3620.06736	0.31751
3618.13872	0.33095
3616.21007	0.34399
3614.28143	0.35652
3612.35278	0.36855
3610.42414	0.38024
3608.49549	0.39176
3606.56685	0.40335
3604.63820	0.41523
3602.70956	0.42758
3600.78091	0.44046
3598.85226	0.45379
3596.92362	0.46737
3594.99497	0.48093
3593.06633	0.49424
3591.13768	0.50728
3589.20904	0.52037
3587.28039	0.53403
3585.35175	0.54875
3583.42310	0.56464
3581.49446	0.58126
3579.56581	0.59771
3577.63717	0.61307
3575.70852	0.62687
3573.77988	0.63939
3571.85123	0.65152
3569.92258	0.66436
3567.99394	0.67867
3566.06529	0.69458
3564.13665	0.71164
3562.20800	0.72911
3560.27936	0.74632
3558.35071	0.76288
3556.42207	0.77874
3554.49342	0.79400
3552.56478	0.80879
3550.63613	0.82317
3548.70749	0.83715
3546.77884	0.85081
3544.85019	0.86444
3542.92155	0.87847
3540.99290	0.89334
3539.06426	0.90926
3537.13561	0.92599
3535.20697	0.94301
3533.27832	0.95966
3531.34968	0.97549
3529.42103	0.99039
3527.49239	1.00461
3525.56374	1.01856
3523.63510	1.03260
3521.70645	1.04695
3519.77780	1.06168
3517.84916	1.07677
3515.92051	1.09204
3513.99187	1.10718
3512.06322	1.12180
3510.13458	1.13560
3508.20593	1.14853
3506.27729	1.16087
3504.34864	1.17316
3502.42000	1.18599
3500.49135	1.19971
3498.56271	1.21422
3496.63406	1.22906
3494.70541	1.24359
3492.77677	1.25732
3490.84812	1.27008
3488.91948	1.28201
3486.99083	1.29349
3485.06219	1.30493
3483.13354	1.31661
3481.20490	1.32861
3479.27625	1.34081
3477.34761	1.35309
3475.41896	1.36530
3473.49032	1.37737
3471.56167	1.38930
3469.63302	1.40113
3467.70438	1.41295
3465.77573	1.42482
3463.84709	1.43672
3461.91844	1.44854
3459.98980	1.46014
3458.06115	1.47142
3456.13251	1.48229
3454.20386	1.49283
3452.27522	1.50329
3450.34657	1.51392
3448.41793	1.52480
3446.48928	1.53576
3444.56064	1.54643
3442.63199	1.55638
3440.70334	1.56528
3438.77470	1.57314
3436.84605	1.58032
3434.91741	1.58742
3432.98876	1.59494
3431.06012	1.60315
3429.13147	1.61195
3427.20283	1.62096
3425.27418	1.62968
3423.34554	1.63779
3421.41689	1.64531
3419.48825	1.65267
3417.55960	1.66045
3415.63095	1.66907
3413.70231	1.67850
3411.77366	1.68824
3409.84502	1.69752
3407.91637	1.70568
3405.98773	1.71234
3404.05908	1.71746
3402.13044	1.72128
3400.20179	1.72408
3398.27315	1.72612
3396.34450	1.72774
3394.41586	1.72949
3392.48721	1.73204
3390.55856	1.73590
3388.62992	1.74112
3386.70127	1.74716
3384.77263	1.75300
3382.84398	1.75755
3380.91534	1.76011
3378.98669	1.76074
3377.05805	1.76018
3375.12940	1.75949
3373.20076	1.75954
3371.27211	1.76069
3369.34347	1.76262
3367.41482	1.76463
3365.48617	1.76607
3363.55753	1.76662
3361.62888	1.76643
3359.70024	1.76597
3357.77159	1.76582
3355.84295	1.76633
3353.91430	1.76747
3351.98566	1.76883
3350.05701	1.76987
3348.12837	1.77015
3346.19972	1.76959
3344.27108	1.76850
3342.34243	1.76744
3340.41378	1.76696
3338.48514	1.76724
3336.55649	1.76800
3334.62785	1.76867
3332.69920	1.76877
3330.77056	1.76817
3328.84191	1.76706
3326.91327	1.76581
3324.98462	1.76473
3323.05598	1.76389
3321.12733	1.76309
3319.19869	1.76205
3317.27004	1.76061
3315.34140	1.75880
3313.41275	1.75678
3311.48410	1.75472
3309.55546	1.75282
3307.62681	1.75118
3305.69817	1.74980
3303.76952	1.74862
3301.84088	1.74753
3299.91223	1.74639
3297.98359	1.74511
3296.05494	1.74367
3294.12630	1.74210
3292.19765	1.74044
3290.26901	1.73864
3288.34036	1.73659
3286.41171	1.73415
3284.48307	1.73118
3282.55442	1.72764
3280.62578	1.72353
3278.69713	1.71898
3276.76849	1.71412
3274.83984	1.70907
3272.91120	1.70392
3270.98255	1.69868
3269.05391	1.69329
3267.12526	1.68764
3265.19662	1.68166
3263.26797	1.67533
3261.33932	1.66876
3259.41068	1.66213
3257.48203	1.65560
3255.55339	1.64916
3253.62474	1.64271
3251.69610	1.63605
3249.76745	1.62902
3247.83881	1.62160
3245.91016	1.61404
3243.98152	1.60675
3242.05287	1.60016
3240.12423	1.59453
3238.19558	1.58982
3236.26693	1.58554
3234.33829	1.58095
3232.40964	1.57528
3230.48100	1.56807
3228.55235	1.55933
3226.62371	1.54960
3224.69506	1.53969
3222.76642	1.53035
3220.83777	1.52193
3218.90913	1.51432
3216.98048	1.50715
3215.05184	1.50000
3213.12319	1.49257
3211.19455	1.48484
3209.26590	1.47688
3207.33725	1.46879
3205.40861	1.46055
3203.47996	1.45211
3201.55132	1.44346
3199.62267	1.43468
3197.69403	1.42591
3195.76538	1.41724
3193.83674	1.40872
3191.90809	1.40035
3189.97945	1.39210
3188.05080	1.38398
3186.12216	1.37595
3184.19351	1.36794
3182.26486	1.35975
3180.33622	1.35111
3178.40757	1.34182
3176.47893	1.33186
3174.55028	1.32139
3172.62164	1.31067
3170.69299	1.29995
3168.76435	1.28941
3166.83570	1.27908
3164.90706	1.26893
3162.97841	1.25895
3161.04977	1.24922
3159.12112	1.23987
3157.19247	1.23102
3155.26383	1.22272
3153.33518	1.21481
3151.40654	1.20704
3149.47789	1.19911
3147.54925	1.19081
3145.62060	1.18210
3143.69196	1.17313
3141.76331	1.16415
3139.83467	1.15538
3137.90602	1.14691
3135.97738	1.13871
3134.04873	1.13070
3132.12008	1.12282
3130.19144	1.11506
3128.26279	1.10742
3126.33415	1.09989
3124.40550	1.09238
3122.47686	1.08481
3120.54821	1.07712
3118.61957	1.06933
3116.69092	1.06153
3114.76228	1.05386
3112.83363	1.04645
3110.90499	1.03942
3108.97634	1.03285
3107.04769	1.02678
3105.11905	1.02118
3103.19040	1.01587
3101.26176	1.01056
3099.33311	1.00492
3097.40447	0.99873
3095.47582	0.99200
3093.54718	0.98495
3091.61853	0.97793
3089.68989	0.97132
3087.76124	0.96535
3085.83260	0.96007
3083.90395	0.95531
3081.97531	0.95078
3080.04666	0.94611
3078.11801	0.94099
3076.18937	0.93529
3074.26072	0.92908
3072.33208	0.92264
3070.40343	0.91631
3068.47479	0.91030
3066.54614	0.90460
3064.61750	0.89901
3062.68885	0.89326
3060.76021	0.88720
3058.83156	0.88080
3056.90292	0.87415
3054.97427	0.86736
3053.04562	0.86049
3051.11698	0.85349
3049.18833	0.84636
3047.25969	0.83920
3045.33104	0.83222
3043.40240	0.82555
3041.47375	0.81921
3039.54511	0.81306
3037.61646	0.80698
3035.68782	0.80094
3033.75917	0.79510
3031.83053	0.78969
3029.90188	0.78487
3027.97323	0.78064
3026.04459	0.77679
3024.11594	0.77308
3022.18730	0.76933
3020.25865	0.76551
3018.33001	0.76153
3016.40136	0.75722
3014.47272	0.75238
3012.54407	0.74694
3010.61543	0.74121
3008.68678	0.73573
3006.75814	0.73116
3004.82949	0.72796
3002.90084	0.72628
3000.97220	0.72577
2999.04355	0.72584
2997.11491	0.72601
2995.18626	0.72621
2993.25762	0.72656
2991.32897	0.72716
2989.40033	0.72804
2987.47168	0.72922
2985.54304	0.73065
2983.61439	0.73234
2981.68575	0.73438
2979.75710	0.73704
2977.82845	0.74051
2975.89981	0.74486
2973.97116	0.75004
2972.04252	0.75607
2970.11387	0.76306
2968.18523	0.77103
2966.25658	0.77966
2964.32794	0.78819
2962.39929	0.79561
2960.47065	0.80096
2958.54200	0.80366
2956.61336	0.80382
2954.68471	0.80236
2952.75607	0.80062
2950.82742	0.79989
2948.89877	0.80091
2946.97013	0.80384
2945.04148	0.80841
2943.11284	0.81418
2941.18419	0.82077
2939.25555	0.82793
2937.32690	0.83552
2935.39826	0.84335
2933.46961	0.85102
2931.54097	0.85801
2929.61232	0.86388
2927.68368	0.86834
2925.75503	0.87115
2923.82638	0.87186
2921.89774	0.86979
2919.96909	0.86409
2918.04045	0.85407
2916.11180	0.83958
2914.18316	0.82152
2912.25451	0.80180
2910.32587	0.78282
2908.39722	0.76667
2906.46858	0.75447
2904.53993	0.74615
2902.61129	0.74063
2900.68264	0.73639
2898.75399	0.73212
2896.82535	0.72711
2894.89670	0.72133
2892.96806	0.71521
2891.03941	0.70932
2889.11077	0.70423
2887.18212	0.70037
2885.25348	0.69785
2883.32483	0.69635
2881.39619	0.69519
2879.46754	0.69375
2877.53890	0.69162
2875.61025	0.68870
2873.68160	0.68512
2871.75296	0.68128
2869.82431	0.67765
2867.89567	0.67455
2865.96702	0.67219
2864.03838	0.67096
2862.10973	0.67139
2860.18109	0.67365
2858.25244	0.67720
2856.32380	0.68079
2854.39515	0.68273
2852.46651	0.68131
2850.53786	0.67544
2848.60922	0.66519
2846.68057	0.65177
2844.75192	0.63686
2842.82328	0.62197
2840.89463	0.60811
2838.96599	0.59579
2837.03734	0.58514
2835.10870	0.57614
2833.18005	0.56875
2831.25141	0.56288
2829.32276	0.55822
2827.39412	0.55427
2825.46547	0.55057
2823.53683	0.54678
2821.60818	0.54278
2819.67953	0.53858
2817.75089	0.53422
2815.82224	0.52975
2813.89360	0.52527
2811.96495	0.52101
2810.03631	0.51725
2808.10766	0.51415
2806.17902	0.51173
2804.25037	0.50983
2802.32173	0.50816
2800.39308	0.50646
2798.46444	0.50461
2796.53579	0.50260
2794.60714	0.50038
2792.67850	0.49781
2790.74985	0.49485
2788.82121	0.49166
2786.89256	0.48850
2784.96392	0.48561
2783.03527	0.48308
2781.10663	0.48082
2779.17798	0.47860
2777.24934	0.47624
2775.32069	0.47370
2773.39205	0.47109
2771.46340	0.46859
2769.53475	0.46635
2767.60611	0.46434
2765.67746	0.46245
2763.74882	0.46060
2761.82017	0.45875
2759.89153	0.45676
2757.96288	0.45449
2756.03424	0.45193
2754.10559	0.44931
2752.17695	0.44692
2750.24830	0.44493
2748.31966	0.44333
2746.39101	0.44194
2744.46236	0.44041
2742.53372	0.43844
2740.60507	0.43601
2738.67643	0.43338
2736.74778	0.43083
2734.81914	0.42846
2732.89049	0.42622
2730.96185	0.42402
2729.03320	0.42183
2727.10456	0.41967
2725.17591	0.41771
2723.24727	0.41615
2721.31862	0.41506
2719.38998	0.41426
2717.46133	0.41340
2715.53268	0.41216
2713.60404	0.41035
2711.67539	0.40791
2709.74675	0.40512
2707.81810	0.40251
2705.88946	0.40048
2703.96081	0.39899
2702.03217	0.39763
2700.10352	0.39599
2698.17488	0.39383
2696.24623	0.39117
2694.31759	0.38829
2692.38894	0.38556
2690.46029	0.38324
2688.53165	0.38130
2686.60300	0.37952
2684.67436	0.37772
2682.74571	0.37588
2680.81707	0.37398
2678.88842	0.37193
2676.95978	0.36964
2675.03113	0.36717
2673.10249	0.36469
2671.17384	0.36240
2669.24520	0.36044
2667.31655	0.35882
2665.38790	0.35736
2663.45926	0.35573
2661.53061	0.35366
2659.60197	0.35111
2657.67332	0.34827
2655.74468	0.34552
2653.81603	0.34309
2651.88739	0.34094
2649.95874	0.33872
2648.03010	0.33604
2646.10145	0.33271
2644.17281	0.32892
2642.24416	0.32515
2640.31551	0.32196
2638.38687	0.31960
2636.45822	0.31785
2634.52958	0.31622
2632.60093	0.31440
2630.67229	0.31235
2628.74364	0.31024
2626.81500	0.30824
2624.88635	0.30642
2622.95771	0.30464
2621.02906	0.30256
2619.10042	0.29996
2617.17177	0.29696
2615.24312	0.29396
2613.31448	0.29139
2611.38583	0.28959
2609.45719	0.28875
2607.52854	0.28868
2605.59990	0.28882
2603.67125	0.28857
2601.74261	0.28755
2599.81396	0.28587
2597.88532	0.28403
2595.95667	0.28274
2594.02803	0.28229
2592.09938	0.28239
2590.17074	0.28229
2588.24209	0.28140
2586.31344	0.27957
2584.38480	0.27714
2582.45615	0.27470
2580.52751	0.27278
2578.59886	0.27149
2576.67022	0.27056
2574.74157	0.26977
2572.81293	0.26929
2570.88428	0.26937
2568.95564	0.26981
2567.02699	0.27006
2565.09835	0.26959
2563.16970	0.26813
2561.24105	0.26580
2559.31241	0.26332
2557.38376	0.26179
2555.45512	0.26180
2553.52647	0.26298
2551.59783	0.26455
2549.66918	0.26589
2547.74054	0.26638
2545.81189	0.26549
2543.88325	0.26338
2541.95460	0.26072
2540.02596	0.25811
2538.09731	0.25593
2536.16866	0.25469
2534.24002	0.25476
2532.31137	0.25584
2530.38273	0.25724
2528.45408	0.25851
2526.52544	0.25941
2524.59679	0.25971
2522.66815	0.25935
2520.73950	0.25858
2518.81086	0.25761
2516.88221	0.25646
2514.95357	0.25520
2513.02492	0.25417
2511.09627	0.25366
2509.16763	0.25369
2507.23898	0.25408
2505.31034	0.25466
2503.38169	0.25530
2501.45305	0.25589
2499.52440	0.25653
2497.59576	0.25754
2495.66711	0.25922
2493.73847	0.26146
2491.80982	0.26365
2489.88118	0.26505
2487.95253	0.26515
2486.02389	0.26370
2484.09524	0.26093
2482.16659	0.25759
2480.23795	0.25457
2478.30930	0.25235
2476.38066	0.25103
2474.45201	0.25060
2472.52337	0.25092
2470.59472	0.25161
2468.66608	0.25234
2466.73743	0.25296
2464.80879	0.25314
2462.88014	0.25252
2460.95150	0.25133
2459.02285	0.25027
2457.09420	0.24971
2455.16556	0.24955
2453.23691	0.24955
2451.30827	0.24945
2449.37962	0.24890
2447.45098	0.24787
2445.52233	0.24684
2443.59369	0.24635
2441.66504	0.24643
2439.73640	0.24674
2437.80775	0.24694
2435.87911	0.24681
2433.95046	0.24634
2432.02181	0.24579
2430.09317	0.24548
2428.16452	0.24555
2426.23588	0.24596
2424.30723	0.24654
2422.37859	0.24702
2420.44994	0.24711
2418.52130	0.24661
2416.59265	0.24562
2414.66401	0.24439
2412.73536	0.24324
2410.80672	0.24260
2408.87807	0.24275
2406.94942	0.24365
2405.02078	0.24492
2403.09213	0.24612
2401.16349	0.24694
2399.23484	0.24728
2397.30620	0.24724
2395.37755	0.24709
2393.44891	0.24714
2391.52026	0.24742
2389.59162	0.24771
2387.66297	0.24762
2385.73433	0.24682
2383.80568	0.24530
2381.87703	0.24348
2379.94839	0.24219
2378.01974	0.24234
2376.09110	0.24446
2374.16245	0.24831
2372.23381	0.25278
2370.30516	0.25621
2368.37652	0.25713
2366.44787	0.25481
2364.51923	0.24961
2362.59058	0.24282
2360.66194	0.23607
2358.73329	0.23075
2356.80465	0.22762
2354.87600	0.22668
2352.94735	0.22753
2351.01871	0.22964
2349.09006	0.23273
2347.16142	0.23672
2345.23277	0.24142
2343.30413	0.24630
2341.37548	0.25060
2339.44684	0.25352
2337.51819	0.25452
2335.58955	0.25362
2333.66090	0.25141
2331.73226	0.24881
2329.80361	0.24647
2327.87496	0.24457
2325.94632	0.24294
2324.01767	0.24142
2322.08903	0.24000
2320.16038	0.23886
2318.23174	0.23824
2316.30309	0.23828
2314.37445	0.23886
2312.44580	0.23964
2310.51716	0.24024
2308.58851	0.24039
2306.65987	0.23984
2304.73122	0.23836
2302.80257	0.23582
2300.87393	0.23221
2298.94528	0.22779
2297.01664	0.22310
2295.08799	0.21881
2293.15935	0.21545
2291.23070	0.21329
2289.30206	0.21223
2287.37341	0.21192
2285.44477	0.21178
2283.51612	0.21126
2281.58748	0.21001
2279.65883	0.20799
2277.73018	0.20538
2275.80154	0.20254
2273.87289	0.19993
2271.94425	0.19810
2270.01560	0.19762
2268.08696	0.19888
2266.15831	0.20193
2264.22967	0.20623
2262.30102	0.21055
2260.37238	0.21316
2258.44373	0.21270
2256.51509	0.20879
2254.58644	0.20237
2252.65779	0.19542
2250.72915	0.19013
2248.80050	0.18755
2246.87186	0.18670
2244.94321	0.18527
2243.01457	0.18131
2241.08592	0.17416
2239.15728	0.16469
2237.22863	0.15542
2235.29999	0.14937
2233.37134	0.14778
2231.44270	0.14933
2229.51405	0.15194
2227.58541	0.15446
2225.65676	0.15646
2223.72811	0.15782
2221.79947	0.15876
2219.87082	0.15950
2217.94218	0.15958
2216.01353	0.15882
2214.08489	0.15849
2212.15624	0.15989
2210.22760	0.16218
2208.29895	0.16280
2206.37031	0.15911
2204.44166	0.14975
2202.51302	0.13561
2200.58437	0.12021
2198.65572	0.10781
2196.72708	0.10031
2194.79843	0.09664
2192.86979	0.09494
2190.94114	0.09404
2189.01250	0.09317
2187.08385	0.09209
2185.15521	0.09139
2183.22656	0.09184
2181.29792	0.09374
2179.36927	0.09749
2177.44063	0.10431
2175.51198	0.11465
2173.58333	0.12580
2171.65469	0.13242
2169.72604	0.12949
2167.79740	0.11487
2165.86875	0.09047
2163.94011	0.06204
2162.01146	0.03707
2160.08282	0.02159
2158.15417	0.01754
2156.22553	0.02275
2154.29688	0.03264
2152.36824	0.04283
2150.43959	0.05132
2148.51094	0.05831
2146.58230	0.06452
2144.65365	0.07076
2142.72501	0.07845
2140.79636	0.08860
2138.86772	0.09993
2136.93907	0.10955
2135.01043	0.11543
2133.08178	0.11723
2131.15314	0.11561
2129.22449	0.11230
2127.29585	0.11025
2125.36720	0.11158
2123.43856	0.11553
2121.50991	0.11958
2119.58126	0.12228
2117.65262	0.12393
2115.72397	0.12536
2113.79533	0.12705
2111.86668	0.12898
2109.93804	0.13030
2108.00939	0.12977
2106.08075	0.12735
2104.15210	0.12478
2102.22346	0.12431
2100.29481	0.12696
2098.36617	0.13194
2096.43752	0.13723
2094.50887	0.14051
2092.58023	0.14026
2090.65158	0.13654
2088.72294	0.13077
2086.79429	0.12481
2084.86565	0.12004
2082.93700	0.11698
2081.00836	0.11559
2079.07971	0.11554
2077.15107	0.11632
2075.22242	0.11717
2073.29378	0.11718
2071.36513	0.11571
2069.43648	0.11261
2067.50784	0.10817
2065.57919	0.10300
2063.65055	0.09782
2061.72190	0.09326
2059.79326	0.08981
2057.86461	0.08784
2055.93597	0.08755
2054.00732	0.08882
2052.07868	0.09092
2050.15003	0.09242
2048.22139	0.09141
2046.29274	0.08620
2044.36409	0.07595
2042.43545	0.06116
2040.50680	0.04411
2038.57816	0.02861
2036.64951	0.01865
2034.72087	0.01650
2032.79222	0.02153
2030.86358	0.03046
2028.93493	0.03871
2027.00629	0.04258
2025.07764	0.04124
2023.14900	0.03695
2021.22035	0.03334
2019.29170	0.03305
2017.36306	0.03667
2015.43441	0.04295
2013.50577	0.04967
2011.57712	0.05480
2009.64848	0.05743
2007.71983	0.05806
2005.79119	0.05831
2003.86254	0.06052
2001.93390	0.06691
2000.00525	0.07851
1998.07661	0.09428
1996.14796	0.11111
1994.21932	0.12476
1992.29067	0.13135
1990.36202	0.12874
1988.43338	0.11717
1986.50473	0.09896
1984.57609	0.07745
1982.64744	0.05626
1980.71880	0.03882
1978.79015	0.02790
1976.86151	0.02501
1974.93286	0.02985
1973.00422	0.04003
1971.07557	0.05322
1969.14693	0.06630
1967.21828	0.07697
1965.28963	0.08457
1963.36099	0.09006
1961.43234	0.09529
1959.50370	0.10196
1957.57505	0.11090
1955.64641	0.12167
1953.71776	0.13265
1951.78912	0.14165
1949.86047	0.14668
1947.93183	0.14665
1946.00318	0.14170
1944.07454	0.13335
1942.14589	0.12409
1940.21724	0.11674
1938.28860	0.11366
1936.35995	0.11592
1934.43131	0.12297
1932.50266	0.13279
1930.57402	0.14285
1928.64537	0.15102
1926.71673	0.15618
1924.78808	0.15821
1922.85944	0.15776
1920.93079	0.15580
1919.00215	0.15321
1917.07350	0.15053
1915.14485	0.14801
1913.21621	0.14575
1911.28756	0.14377
1909.35892	0.14216
1907.43027	0.14115
1905.50163	0.14118
1903.57298	0.14264
1901.64434	0.14556
1899.71569	0.14943
1897.78705	0.15325
1895.85840	0.15595
1893.92976	0.15686
1892.00111	0.15594
1890.07246	0.15386
1888.14382	0.15163
1886.21517	0.15026
1884.28653	0.15016
1882.35788	0.15097
1880.42924	0.15176
1878.50059	0.15156
1876.57195	0.14973
1874.64330	0.14621
1872.71466	0.14159
1870.78601	0.13687
1868.85737	0.13307
1866.92872	0.13086
1865.00008	0.13046
1863.07143	0.13171
1861.14278	0.13418
1859.21414	0.13722
1857.28549	0.14015
1855.35685	0.14251
1853.42820	0.14405
1851.49956	0.14477
1849.57091	0.14486
1847.64227	0.14453
1845.71362	0.14400
1843.78498	0.14342
1841.85633	0.14292
1839.92769	0.14260
1837.99904	0.14253
1836.07039	0.14273
1834.14175	0.14315
1832.21310	0.14370
1830.28446	0.14437
1828.35581	0.14518
1826.42717	0.14618
1824.49852	0.14729
1822.56988	0.14831
1820.64123	0.14894
1818.71259	0.14894
1816.78394	0.14828
1814.85530	0.14723
1812.92665	0.14623
1810.99800	0.14573
1809.06936	0.14600
1807.14071	0.14701
1805.21207	0.14852
1803.28342	0.15013
1801.35478	0.15152
1799.42613	0.15260
1797.49749	0.15345
1795.56884	0.15433
1793.64020	0.15556
1791.71155	0.15738
1789.78291	0.15990
1787.85426	0.16296
1785.92561	0.16626
1783.99697	0.16933
1782.06832	0.17172
1780.13968	0.17314
1778.21103	0.17361
1776.28239	0.17349
1774.35374	0.17335
1772.42510	0.17384
1770.49645	0.17544
1768.56781	0.17832
1766.63916	0.18232
1764.71052	0.18714
1762.78187	0.19248
1760.85322	0.19815
1758.92458	0.20416
1756.99593	0.21068
1755.06729	0.21794
1753.13864	0.22609
1751.21000	0.23507
1749.28135	0.24467
1747.35271	0.25449
1745.42406	0.26407
1743.49542	0.27307
1741.56677	0.28145
1739.63813	0.28945
1737.70948	0.29749
1735.78084	0.30597
1733.85219	0.31507
1731.92354	0.32459
1729.99490	0.33396
1728.06625	0.34248
1726.13761	0.34958
1724.20896	0.35515
1722.28032	0.35958
1720.35167	0.36360
1718.42303	0.36806
1716.49438	0.37351
1714.56574	0.37998
1712.63709	0.38698
1710.70845	0.39379
1708.77980	0.39988
1706.85115	0.40526
1704.92251	0.41055
1702.99386	0.41687
1701.06522	0.42547
1699.13657	0.43725
1697.20793	0.45241
1695.27928	0.47049
1693.35064	0.49064
1691.42199	0.51213
1689.49335	0.53454
1687.56470	0.55788
1685.63606	0.58234
1683.70741	0.60800
1681.77876	0.63464
1679.85012	0.66182
1677.92147	0.68920
1675.99283	0.71682
1674.06418	0.74504
1672.13554	0.77435
1670.20689	0.80504
1668.27825	0.83696
1666.34960	0.86946
1664.42096	0.90145
1662.49231	0.93179
1660.56367	0.95946
1658.63502	0.98376
1656.70637	1.00431
1654.77773	1.02117
1652.84908	1.03473
1650.92044	1.04557
1648.99179	1.05425
1647.06315	1.06128
1645.13450	1.06691
1643.20586	1.07121
1641.27721	1.07411
1639.34857	1.07554
1637.41992	1.07557
1635.49128	1.07434
1633.56263	1.07207
1631.63399	1.06902
1629.70534	1.06538
1627.77669	1.06134
1625.84805	1.05710
1623.91940	1.05295
1621.99076	1.04919
1620.06211	1.04604
1618.13347	1.04352
1616.20482	1.04131
1614.27618	1.03884
1612.34753	1.03535
1610.41889	1.03015
1608.49024	1.02275
1606.56160	1.01295
1604.63295	1.00077
1602.70430	0.98637
1600.77566	0.96998
1598.84701	0.95186
1596.91837	0.93226
1594.98972	0.91156
1593.06108	0.89022
1591.13243	0.86871
1589.20379	0.84743
1587.27514	0.82659
1585.34650	0.80624
1583.41785	0.78636
1581.48921	0.76696
1579.56056	0.74820
1577.63191	0.73041
1575.70327	0.71399
1573.77462	0.69915
1571.84598	0.68572
1569.91733	0.67318
1567.98869	0.66090
1566.06004	0.64845
1564.13140	0.63587
1562.20275	0.62377
1560.27411	0.61306
1558.34546	0.60447
1556.41682	0.59807
1554.48817	0.59310
1552.55952	0.58822
1550.63088	0.58197
1548.70223	0.57337
1546.77359	0.56224
1544.84494	0.54922
1542.91630	0.53544
1540.98765	0.52206
1539.05901	0.50995
1537.13036	0.49947
1535.20172	0.49058
1533.27307	0.48304
1531.34443	0.47668
1529.41578	0.47150
1527.48713	0.46766
1525.55849	0.46535
1523.62984	0.46448
1521.70120	0.46452
1519.77255	0.46434
1517.84391	0.46245
1515.91526	0.45750
1513.98662	0.44878
1512.05797	0.43663
1510.12933	0.42233
1508.20068	0.40767
1506.27204	0.39437
1504.34339	0.38343
1502.41475	0.37495
1500.48610	0.36825
1498.55745	0.36242
1496.62881	0.35674
1494.70016	0.35095
1492.77152	0.34528
1490.84287	0.34030
1488.91423	0.33666
1486.98558	0.33488
1485.05694	0.33535
1483.12829	0.33835
1481.19965	0.34419
1479.27100	0.35322
1477.34236	0.36566
1475.41371	0.38138
1473.48506	0.39970
1471.55642	0.41938
1469.62777	0.43881
1467.69913	0.45638
1465.77048	0.47102
1463.84184	0.48237
1461.91319	0.49079
1459.98455	0.49701
1458.05590	0.50172
1456.12726	0.50534
1454.19861	0.50788
1452.26997	0.50918
1450.34132	0.50918
1448.41267	0.50818
1446.48403	0.50682
1444.55538	0.50595
1442.62674	0.50642
1440.69809	0.50887
1438.76945	0.51369
1436.84080	0.52094
1434.91216	0.53043
1432.98351	0.54165
1431.05487	0.55385
1429.12622	0.56616
1427.19758	0.57777
1425.26893	0.58815
1423.34028	0.59722
1421.41164	0.60529
1419.48299	0.61293
1417.55435	0.62058
1415.62570	0.62836
1413.69706	0.63596
1411.76841	0.64278
1409.83977	0.64818
1407.91112	0.65168
1405.98248	0.65309
1404.05383	0.65249
1402.12519	0.65007
1400.19654	0.64597
1398.26789	0.64033
1396.33925	0.63331
1394.41060	0.62523
1392.48196	0.61660
1390.55331	0.60802
1388.62467	0.60003
1386.69602	0.59299
1384.76738	0.58695
1382.83873	0.58173
1380.91009	0.57703
1378.98144	0.57254
1377.05280	0.56804
1375.12415	0.56337
1373.19551	0.55842
1371.26686	0.55312
1369.33821	0.54743
1367.40957	0.54141
1365.48092	0.53527
1363.55228	0.52932
1361.62363	0.52392
1359.69499	0.51935
1357.76634	0.51568
1355.83770	0.51280
1353.90905	0.51046
1351.98041	0.50838
1350.05176	0.50634
1348.12312	0.50421
1346.19447	0.50190
1344.26582	0.49931
1342.33718	0.49630
1340.40853	0.49279
1338.47989	0.48877
1336.55124	0.48437
1334.62260	0.47982
1332.69395	0.47533
1330.76531	0.47104
1328.83666	0.46700
1326.90802	0.46323
1324.97937	0.45975
1323.05073	0.45656
1321.12208	0.45369
1319.19343	0.45107
1317.26479	0.44859
1315.33614	0.44616
1313.40750	0.44378
1311.47885	0.44166
1309.55021	0.44014
1307.62156	0.43955
1305.69292	0.44011
1303.76427	0.44177
1301.83563	0.44425
1299.90698	0.44718
1297.97834	0.45020
1296.04969	0.45317
1294.12104	0.45617
1292.19240	0.45943
1290.26375	0.46320
1288.33511	0.46758
1286.40646	0.47241
1284.47782	0.47742
1282.54917	0.48235
1280.62053	0.48714
1278.69188	0.49195
1276.76324	0.49714
1274.83459	0.50308
1272.90595	0.50991
1270.97730	0.51746
1269.04866	0.52527
1267.12001	0.53276
1265.19136	0.53931
1263.26272	0.54447
1261.33407	0.54802
1259.40543	0.54992
1257.47678	0.55034
1255.54814	0.54956
1253.61949	0.54796
1251.69085	0.54594
1249.76220	0.54387
1247.83356	0.54204
1245.90491	0.54057
1243.97627	0.53943
1242.04762	0.53847
1240.11897	0.53749
1238.19033	0.53638
1236.26168	0.53510
1234.33304	0.53376
1232.40439	0.53252
1230.47575	0.53154
1228.54710	0.53085
1226.61846	0.53039
1224.68981	0.53001
1222.76117	0.52956
1220.83252	0.52895
1218.90388	0.52820
1216.97523	0.52743
1215.04658	0.52690
1213.11794	0.52687
1211.18929	0.52766
1209.26065	0.52955
1207.33200	0.53256
1205.40336	0.53643
1203.47471	0.54073
1201.54607	0.54501
1199.61742	0.54906
1197.68878	0.55316
1195.76013	0.55811
1193.83149	0.56497
1191.90284	0.57461
1189.97419	0.58744
1188.04555	0.60336
1186.11690	0.62176
1184.18826	0.64180
1182.25961	0.66272
1180.33097	0.68411
1178.40232	0.70593
1176.47368	0.72848
1174.54503	0.75220
1172.61639	0.77748
1170.68774	0.80430
1168.75910	0.83203
1166.83045	0.85954
1164.90180	0.88550
1162.97316	0.90892
1161.04451	0.92953
1159.11587	0.94768
1157.18722	0.96416
1155.25858	0.98000
1153.32993	0.99613
1151.40129	1.01309
1149.47264	1.03110
1147.54400	1.05025
1145.61535	1.07063
1143.68671	1.09231
1141.75806	1.11535
1139.82942	1.13987
1137.90077	1.16616
1135.97212	1.19434
1134.04348	1.22400
1132.11483	1.25422
1130.18619	1.28391
1128.25754	1.31214
1126.32890	1.33825
1124.40025	1.36217
1122.47161	1.38455
1120.54296	1.40638
1118.61432	1.42834
1116.68567	1.45073
1114.75703	1.47369
1112.82838	1.49720
1110.89973	1.52108
1108.97109	1.54505
1107.04244	1.56892
1105.11380	1.59240
1103.18515	1.61523
1101.25651	1.63750
1099.32786	1.65982
1097.39922	1.68312
1095.47057	1.70846
1093.54193	1.73683
1091.61328	1.76876
1089.68464	1.80388
1087.75599	1.84092
1085.82734	1.87801
1083.89870	1.91304
1081.97005	1.94383
1080.04141	1.96856
1078.11276	1.98615
1076.18412	1.99644
1074.25547	2.00000
1072.32683	1.99795
1070.39818	1.99200
1068.46954	1.98420
1066.54089	1.97630
1064.61225	1.96919
1062.68360	1.96282
1060.75495	1.95633
1058.82631	1.94843
1056.89766	1.93792
1054.96902	1.92426
1053.04037	1.90781
1051.11173	1.88974
1049.18308	1.87162
1047.25444	1.85486
1045.32579	1.84030
1043.39715	1.82812
1041.46850	1.81783
1039.53986	1.80819
1037.61121	1.79764
1035.68256	1.78490
1033.75392	1.76930
1031.82527	1.75072
1029.89663	1.72941
1027.96798	1.70600
1026.03934	1.68116
1024.11069	1.65530
1022.18205	1.62854
1020.25340	1.60093
1018.32476	1.57267
1016.39611	1.54423
1014.46747	1.51633
1012.53882	1.48975
1010.61018	1.46508
1008.68153	1.44255
1006.75288	1.42191
1004.82424	1.40264
1002.89559	1.38429
1000.96695	1.36674
999.03830	1.35007
997.10966	1.33417
995.18101	1.31849
993.25237	1.30187
991.32372	1.28276
989.39508	1.25964
987.46643	1.23151
985.53779	1.19828
983.60914	1.16076
981.68049	1.12038
979.75185	1.07885
977.82320	1.03760
975.89456	0.99740
973.96591	0.95836
972.03727	0.92020
970.10862	0.88281
968.17998	0.84670
966.25133	0.81312
964.32269	0.78371
962.39404	0.75966
960.46540	0.74119
958.53675	0.72747
956.60810	0.71707
954.67946	0.70864
952.75081	0.70136
950.82217	0.69505
948.89352	0.68983
946.96488	0.68579
945.03623	0.68278
943.10759	0.68040
941.17894	0.67814
939.25030	0.67550
937.32165	0.67213
935.39301	0.66779
933.46436	0.66235
931.53571	0.65582
929.60707	0.64840
927.67842	0.64034
925.74978	0.63168
923.82113	0.62218
921.89249	0.61158
919.96384	0.59968
918.03520	0.58658
916.10655	0.57274
914.17791	0.55900
912.24926	0.54631
910.32062	0.53531
908.39197	0.52599
906.46333	0.51784
904.53468	0.51018
902.60603	0.50247
900.67739	0.49455
898.74874	0.48647
896.82010	0.47857
894.89145	0.47146
892.96281	0.46586
891.03416	0.46240
889.10552	0.46149
887.17687	0.46317
885.24823	0.46673
883.31958	0.47066
881.39094	0.47343
879.46229	0.47417
877.53364	0.47284
875.60500	0.46993
873.67635	0.46628
871.74771	0.46264
869.81906	0.45912
867.89042	0.45524
865.96177	0.45059
864.03313	0.44506
862.10448	0.43861
860.17584	0.43129
858.24719	0.42350
856.31855	0.41583
854.38990	0.40860
852.46125	0.40183
850.53261	0.39557
848.60396	0.38987
846.67532	0.38466
844.74667	0.37983
842.81803	0.37546
840.88938	0.37172
838.96074	0.36871
837.03209	0.36639
835.10345	0.36480
833.17480	0.36404
831.24616	0.36411
829.31751	0.36478
827.38886	0.36558
825.46022	0.36612
823.53157	0.36631
821.60293	0.36635
819.67428	0.36660
817.74564	0.36751
815.81699	0.36964
813.88835	0.37371
811.95970	0.38073
810.03106	0.39201
808.10241	0.40861
806.17377	0.43047
804.24512	0.45571
802.31647	0.48086
800.38783	0.50180
798.45918	0.51513
796.53054	0.51945
794.60189	0.51599
792.67325	0.50818
790.74460	0.50021
788.81596	0.49545
786.88731	0.49574
784.95867	0.50087
783.03002	0.50870
781.10138	0.51622
779.17273	0.52096
777.24409	0.52169
775.31544	0.51828
773.38679	0.51161
771.45815	0.50333
769.52950	0.49494
767.60086	0.48685
765.67221	0.47876
763.74357	0.47056
761.81492	0.46267
759.88628	0.45576
757.95763	0.45037
756.02899	0.44690
754.10034	0.44531
752.17170	0.44477
750.24305	0.44401
748.31440	0.44228
746.38576	0.43991
744.45711	0.43759
742.52847	0.43575
740.59982	0.43462
738.67118	0.43438
736.74253	0.43476
734.81389	0.43517
732.88524	0.43533
730.95660	0.43556
729.02795	0.43634
727.09931	0.43789
725.17066	0.44015
723.24201	0.44268
721.31337	0.44482
719.38472	0.44607
717.45608	0.44641
715.52743	0.44631
713.59879	0.44645
711.67014	0.44743
709.74150	0.44969
707.81285	0.45349
705.88421	0.45899
703.95556	0.46627
702.02692	0.47507
700.09827	0.48451
698.16962	0.49309
696.24098	0.49912
694.31233	0.50142
692.38369	0.49979
690.45504	0.49519
688.52640	0.48928
686.59775	0.48384
684.66911	0.48001
682.74046	0.47808
680.81182	0.47784
678.88317	0.47901
676.95453	0.48137
675.02588	0.48476
673.09723	0.48890
671.16859	0.49316
669.23994	0.49642
667.31130	0.49747
665.38265	0.49577
663.45401	0.49172
661.52536	0.48636
659.59672	0.48106
657.66807	0.47727
655.73943	0.47602
653.81078	0.47753
651.88214	0.48114
649.95349	0.48583
648.02485	0.49064
646.09620	0.49493
644.16755	0.49858
642.23891	0.50205
640.31026	0.50613
638.38162	0.51150
636.45297	0.51857
634.52433	0.52714
632.59568	0.53612
630.66704	0.54364
628.73839	0.54790
626.80975	0.54860
624.88110	0.54760
622.95246	0.54795
621.02381	0.55192
619.09516	0.55947
617.16652	0.56794
615.23787	0.57354
613.30923	0.57411
611.38058	0.57119
609.45194	0.56955
607.52329	0.57366
605.59465	0.58441
603.66600	0.59857
601.73736	0.61082
599.80871	0.61674
597.88007	0.61516
595.95142	0.60837
594.02277	0.60055
592.09413	0.59535
590.16548	0.59451
588.23684	0.59790
586.30819	0.60464
584.37955	0.61396
582.45090	0.62523
580.52226	0.63741
578.59361	0.64900
576.66497	0.65850
574.73632	0.66498
572.80768	0.66839
570.87903	0.66985
568.95038	0.67146
567.02174	0.67551
565.09309	0.68348
563.16445	0.69554
561.23580	0.71065
559.30716	0.72723
557.37851	0.74405
555.44987	0.76088
553.52122	0.77857
551.59258	0.79831
549.66393	0.82063
547.73529	0.84475
545.80664	0.86886
543.87800	0.89126
541.94935	0.91132
540.02070	0.92976
538.09206	0.94797
536.16341	0.96685
534.23477	0.98577
532.30612	1.00232
530.37748	1.01351
528.44883	1.01741
526.52019	1.01407
524.59154	1.00529
522.66290	0.99370
520.73425	0.98152
518.80561	0.96955
516.87696	0.95719
514.94831	0.94341
513.01967	0.92768
511.09102	0.91028
509.16238	0.89187
507.23373	0.87303
505.30509	0.85392
503.37644	0.83445
501.44780	0.81478
499.51915	0.79597
497.59051	0.78002
495.66186	0.76925
493.73322	0.76545
491.80457	0.76924
489.87592	0.78013
487.94728	0.79701
486.01863	0.81857
484.08999	0.84361
482.16134	0.87106
480.23270	0.89974
478.30405	0.92802
476.37541	0.95382
474.44676	0.97499
472.51812	0.98970
470.58947	0.99686
468.66083	0.99641
466.73218	0.98938
464.80353	0.97752
462.87489	0.96264
460.94624	0.94594
459.01760	0.92763
457.08895	0.90695
455.16031	0.88277
453.23166	0.85456
451.30302	0.82297
449.37437	0.78986
447.44573	0.75770
445.51708	0.72885
443.58844	0.70479
441.65979	0.68584
439.73114	0.67138
437.80250	0.66044
435.87385	0.65205
433.94521	0.64536
432.01656	0.63961
430.08792	0.63400
428.15927	0.62773
426.23063	0.62005
424.30198	0.61044
422.37334	0.59871
420.44469	0.58492
418.51605	0.56922
416.58740	0.55169
414.65876	0.53244
412.73011	0.51206
410.80146	0.49219
408.87282	0.47554
406.94417	0.46533
405.01553	0.46396
403.08688	0.47164
401.15824	0.48539
399.22959	0.49952
397.30095	0.50744
395.37230	0.50412
393.44366	0.48807
391.51501	0.46176
389.58637	0.43062
387.65772	0.40100
385.72907	0.37820
383.80043	0.36525
381.87178	0.36250
379.94314	0.36792
378.01449	0.37784
376.08585	0.38782
374.15720	0.39359
372.22856	0.39195
370.29991	0.38176
368.37127	0.36417
366.44262	0.34209
364.51398	0.31899
362.58533	0.29778
360.65668	0.28010
358.72804	0.26624
356.79939	0.25551
354.87075	0.24681
352.94210	0.23908
351.01346	0.23153
349.08481	0.22379
347.15617	0.21598
345.22752	0.20846
343.29888	0.20145
341.37023	0.19474
339.44159	0.18754
337.51294	0.17876
335.58429	0.16766
333.65565	0.15447
331.72700	0.14059
329.79836	0.12800
327.86971	0.11833
325.94107	0.11220
324.01242	0.10920
322.08378	0.10824
320.15513	0.10800
318.22649	0.10713
316.29784	0.10443
314.36920	0.09900
312.44055	0.09044
310.51190	0.07933
308.58326	0.06753
306.65461	0.05789
304.72597	0.05301
302.79732	0.05377
300.86868	0.05874
298.94003	0.06467
297.01139	0.06784
295.08274	0.06557
293.15410	0.05750
291.22545	0.04487
289.29681	0.03040
287.36816	0.01725
285.43952	0.00809
283.51087	0.00470
281.58222	0.00786
279.65358	0.01713
277.72493	0.03090
275.79629	0.04692
273.86764	0.06314
271.93900	0.07832
270.01035	0.09199
268.08171	0.10402
266.15306	0.11408
264.22442	0.12132
262.29577	0.12464
260.36713	0.12330
258.43848	0.11761
256.50983	0.10909
254.58119	0.09991
252.65254	0.09208
250.72390	0.08692
248.79525	0.08515
246.86661	0.08712
244.93796	0.09285
243.00932	0.10194
241.08067	0.11336
239.15203	0.12512
237.22338	0.13454
235.29474	0.13933
233.36609	0.13890
231.43744	0.13512
229.50880	0.13195
227.58015	0.13391
225.65151	0.14383
223.72286	0.16120
221.79422	0.18210
219.86557	0.20076
217.93693	0.21201
216.00828	0.21322
214.07964	0.20516
212.15099	0.19138
210.22235	0.17667
208.29370	0.16547
206.36505	0.16078
204.43641	0.16353
202.50776	0.17276
200.57912	0.18620
198.65047	0.20102
196.72183	0.21464
194.79318	0.22588
192.86454	0.23556
190.93589	0.24591
189.00725	0.25903
187.07860	0.27577
185.14996	0.29577
183.22131	0.31805
181.29267	0.34149
179.36402	0.36544
177.43537	0.39017
175.50673	0.41693
173.57808	0.44747
171.64944	0.48371
169.72079	0.52748
167.79215	0.57975
165.86350	0.63871
163.93486	0.69805
162.00621	0.74669
160.07757	0.77995
158.14892	0.79705
156.22028	0.80093
154.29163	0.80093
152.36298	0.80093
150.43434	0.80093
148.50569	0.80093
