4497.60101	0.04886
4495.67236	0.04886
4493.74372	0.04886
4491.81507	0.04886
4489.88643	0.04886
4487.95778	0.04253
4486.02914	0.03684
4484.10049	0.03354
4482.17185	0.03444
4480.24320	0.04120
4478.31455	0.05072
4476.38591	0.06085
4474.45726	0.06937
4472.52862	0.07423
4470.59997	0.07398
4468.67133	0.06854
4466.74268	0.05996
4464.81404	0.05198
4462.88539	0.04832
4460.95675	0.05068
4459.02810	0.05816
4457.09946	0.06809
4455.17081	0.07718
4453.24216	0.08282
4451.31352	0.08426
4449.38487	0.08258
4447.45623	0.07945
4445.52758	0.07609
4443.59894	0.07323
4441.67029	0.07165
4439.74165	0.07194
4437.81300	0.07427
4435.88436	0.07852
4433.95571	0.08389
4432.02707	0.08859
4430.09842	0.09023
4428.16978	0.08745
4426.24113	0.08082
4424.31248	0.07241
4422.38384	0.06497
4420.45519	0.06130
4418.52655	0.06308
4416.59790	0.06951
4414.66926	0.07754
4412.74061	0.08376
4410.81197	0.08610
4408.88332	0.08413
4406.95468	0.07882
4405.02603	0.07222
4403.09739	0.06641
4401.16874	0.06238
4399.24009	0.06016
4397.31145	0.05960
4395.38280	0.06051
4393.45416	0.06241
4391.52551	0.06433
4389.59687	0.06530
4387.66822	0.06493
4385.73958	0.06352
4383.81093	0.06220
4381.88229	0.06248
4379.95364	0.06553
4378.02500	0.07145
4376.09635	0.07907
4374.16770	0.08647
4372.23906	0.09198
4370.31041	0.09451
4368.38177	0.09370
4366.45312	0.09012
4364.52448	0.08489
4362.59583	0.07906
4360.66719	0.07330
4358.73854	0.06824
4356.80990	0.06462
4354.88125	0.06280
4352.95261	0.06264
4351.02396	0.06371
4349.09531	0.06536
4347.16667	0.06682
4345.23802	0.06774
4343.30938	0.06862
4341.38073	0.06999
4339.45209	0.07141
4337.52344	0.07179
4335.59480	0.07018
4333.66615	0.06643
4331.73751	0.06154
4329.80886	0.05761
4327.88022	0.05692
4325.95157	0.06036
4324.02292	0.06706
4322.09428	0.07536
4320.16563	0.08323
4318.23699	0.08842
4316.30834	0.08931
4314.37970	0.08587
4312.45105	0.07954
4310.52241	0.07263
4308.59376	0.06791
4306.66512	0.06793
4304.73647	0.07311
4302.80783	0.08072
4300.87918	0.08661
4298.95054	0.08781
4297.02189	0.08365
4295.09324	0.07563
4293.16460	0.06678
4291.23595	0.06032
4289.30731	0.05758
4287.37866	0.05731
4285.45002	0.05747
4283.52137	0.05706
4281.59273	0.05636
4279.66408	0.05614
4277.73544	0.05704
4275.80679	0.05886
4273.87815	0.06035
4271.94950	0.06029
4270.02085	0.05886
4268.09221	0.05774
4266.16356	0.05874
4264.23492	0.06251
4262.30627	0.06814
4260.37763	0.07337
4258.44898	0.07608
4256.52034	0.07581
4254.59169	0.07385
4252.66305	0.07206
4250.73440	0.07173
4248.80576	0.07300
4246.87711	0.07480
4244.94846	0.07554
4243.01982	0.07440
4241.09117	0.07179
4239.16253	0.06876
4237.23388	0.06650
4235.30524	0.06613
4233.37659	0.06811
4231.44795	0.07187
4229.51930	0.07630
4227.59066	0.08039
4225.66201	0.08314
4223.73337	0.08365
4221.80472	0.08158
4219.87607	0.07729
4217.94743	0.07155
4216.01878	0.06549
4214.09014	0.06083
4212.16149	0.05917
4210.23285	0.06107
4208.30420	0.06627
4206.37556	0.07427
4204.44691	0.08401
4202.51827	0.09369
4200.58962	0.10142
4198.66098	0.10582
4196.73233	0.10578
4194.80368	0.10069
4192.87504	0.09156
4190.94639	0.08104
4189.01775	0.07170
4187.08910	0.06484
4185.16046	0.06074
4183.23181	0.05909
4181.30317	0.05923
4179.37452	0.06073
4177.44588	0.06386
4175.51723	0.06892
4173.58859	0.07509
4171.65994	0.08063
4169.73130	0.08398
4167.80265	0.08449
4165.87400	0.08235
4163.94536	0.07849
4162.01671	0.07420
4160.08807	0.07052
4158.15942	0.06796
4156.23078	0.06698
4154.30213	0.06813
4152.37349	0.07138
4150.44484	0.07577
4148.51620	0.07978
4146.58755	0.08202
4144.65891	0.08186
4142.73026	0.07970
4140.80161	0.07671
4138.87297	0.07410
4136.94432	0.07244
4135.01568	0.07160
4133.08703	0.07131
4131.15839	0.07163
4129.22974	0.07286
4127.30110	0.07489
4125.37245	0.07690
4123.44381	0.07778
4121.51516	0.07667
4119.58652	0.07331
4117.65787	0.06841
4115.72922	0.06357
4113.80058	0.06030
4111.87193	0.05907
4109.94329	0.05954
4108.01464	0.06136
4106.08600	0.06424
4104.15735	0.06732
4102.22871	0.06946
4100.30006	0.07008
4098.37142	0.06943
4096.44277	0.06825
4094.51413	0.06746
4092.58548	0.06791
4090.65683	0.06985
4088.72819	0.07231
4086.79954	0.07369
4084.87090	0.07332
4082.94225	0.07219
4081.01361	0.07199
4079.08496	0.07363
4077.15632	0.07697
4075.22767	0.08146
4073.29903	0.08614
4071.37038	0.08969
4069.44174	0.09116
4067.51309	0.09043
4065.58444	0.08768
4063.65580	0.08293
4061.72715	0.07649
4059.79851	0.06952
4057.86986	0.06343
4055.94122	0.05906
4054.01257	0.05672
4052.08393	0.05651
4050.15528	0.05814
4048.22664	0.06101
4046.29799	0.06451
4044.36935	0.06808
4042.44070	0.07104
4040.51206	0.07267
4038.58341	0.07278
4036.65476	0.07186
4034.72612	0.07065
4032.79747	0.06971
4030.86883	0.06923
4028.94018	0.06889
4027.01154	0.06785
4025.08289	0.06541
4023.15425	0.06181
4021.22560	0.05823
4019.29696	0.05599
4017.36831	0.05592
4015.43967	0.05803
4013.51102	0.06183
4011.58237	0.06641
4009.65373	0.07109
4007.72508	0.07562
4005.79644	0.07987
4003.86779	0.08340
4001.93915	0.08563
4000.01050	0.08631
3998.08186	0.08573
3996.15321	0.08457
3994.22457	0.08359
3992.29592	0.08321
3990.36728	0.08328
3988.43863	0.08336
3986.50998	0.08316
3984.58134	0.08262
3982.65269	0.08186
3980.72405	0.08095
3978.79540	0.07989
3976.86676	0.07852
3974.93811	0.07670
3973.00947	0.07462
3971.08082	0.07267
3969.15218	0.07114
3967.22353	0.07005
3965.29489	0.06931
3963.36624	0.06884
3961.43759	0.06865
3959.50895	0.06888
3957.58030	0.06974
3955.65166	0.07131
3953.72301	0.07334
3951.79437	0.07539
3949.86572	0.07698
3947.93708	0.07789
3946.00843	0.07821
3944.07979	0.07818
3942.15114	0.07797
3940.22250	0.07756
3938.29385	0.07684
3936.36521	0.07564
3934.43656	0.07395
3932.50791	0.07201
3930.57927	0.07037
3928.65062	0.06971
3926.72198	0.07047
3924.79333	0.07262
3922.86469	0.07557
3920.93604	0.07836
3919.00740	0.07992
3917.07875	0.07958
3915.15011	0.07735
3913.22146	0.07395
3911.29282	0.07047
3909.36417	0.06782
3907.43552	0.06644
3905.50688	0.06635
3903.57823	0.06734
3901.64959	0.06920
3899.72094	0.07178
3897.79230	0.07494
3895.86365	0.07840
3893.93501	0.08167
3892.00636	0.08411
3890.07772	0.08516
3888.14907	0.08456
3886.22043	0.08228
3884.29178	0.07850
3882.36313	0.07346
3880.43449	0.06759
3878.50584	0.06166
3876.57720	0.05666
3874.64855	0.05362
3872.71991	0.05315
3870.79126	0.05520
3868.86262	0.05904
3866.93397	0.06343
3865.00533	0.06721
3863.07668	0.06971
3861.14804	0.07096
3859.21939	0.07134
3857.29074	0.07124
3855.36210	0.07087
3853.43345	0.07022
3851.50481	0.06925
3849.57616	0.06802
3847.64752	0.06665
3845.71887	0.06516
3843.79023	0.06345
3841.86158	0.06150
3839.93294	0.05963
3838.00429	0.05866
3836.07565	0.05965
3834.14700	0.06326
3832.21835	0.06919
3830.28971	0.07603
3828.36106	0.08187
3826.43242	0.08514
3824.50377	0.08520
3822.57513	0.08243
3820.64648	0.07797
3818.71784	0.07313
3816.78919	0.06897
3814.86055	0.06624
3812.93190	0.06546
3811.00326	0.06687
3809.07461	0.07017
3807.14597	0.07461
3805.21732	0.07914
3803.28867	0.08273
3801.36003	0.08461
3799.43138	0.08460
3797.50274	0.08308
3795.57409	0.08068
3793.64545	0.07802
3791.71680	0.07556
3789.78816	0.07366
3787.85951	0.07247
3785.93087	0.07200
3784.00222	0.07219
3782.07358	0.07304
3780.14493	0.07447
3778.21628	0.07623
3776.28764	0.07780
3774.35899	0.07849
3772.43035	0.07760
3770.50170	0.07476
3768.57306	0.07026
3766.64441	0.06515
3764.71577	0.06088
3762.78712	0.05865
3760.85848	0.05899
3758.92983	0.06151
3757.00119	0.06516
3755.07254	0.06883
3753.14389	0.07187
3751.21525	0.07424
3749.28660	0.07617
3747.35796	0.07777
3745.42931	0.07893
3743.50067	0.07941
3741.57202	0.07913
3739.64338	0.07845
3737.71473	0.07807
3735.78609	0.07872
3733.85744	0.08064
3731.92880	0.08350
3730.00015	0.08666
3728.07150	0.08944
3726.14286	0.09127
3724.21421	0.09186
3722.28557	0.09120
3720.35692	0.08948
3718.42828	0.08710
3716.49963	0.08478
3714.57099	0.08344
3712.64234	0.08384
3710.71370	0.08629
3708.78505	0.09049
3706.85641	0.09555
3704.92776	0.10033
3702.99911	0.10388
3701.07047	0.10576
3699.14182	0.10599
3697.21318	0.10488
3695.28453	0.10291
3693.35589	0.10051
3691.42724	0.09806
3689.49860	0.09592
3687.56995	0.09452
3685.64131	0.09429
3683.71266	0.09547
3681.78402	0.09804
3679.85537	0.10182
3677.92673	0.10649
3675.99808	0.11176
3674.06943	0.11745
3672.14079	0.12347
3670.21214	0.12979
3668.28350	0.13635
3666.35485	0.14304
3664.42621	0.14994
3662.49756	0.15732
3660.56892	0.16563
3658.64027	0.17530
3656.71163	0.18656
3654.78298	0.19918
3652.85434	0.21246
3650.92569	0.22546
3648.99704	0.23737
3647.06840	0.24766
3645.13975	0.25626
3643.21111	0.26355
3641.28246	0.27037
3639.35382	0.27785
3637.42517	0.28708
3635.49653	0.29897
3633.56788	0.31380
3631.63924	0.33105
3629.71059	0.34944
3627.78195	0.36749
3625.85330	0.38406
3623.92465	0.39860
3621.99601	0.41122
3620.06736	0.42243
3618.13872	0.43278
3616.21007	0.44271
3614.28143	0.45247
3612.35278	0.46230
3610.42414	0.47252
3608.49549	0.48344
3606.56685	0.49531
3604.63820	0.50815
3602.70956	0.52175
3600.78091	0.53580
3598.85226	0.55010
3596.92362	0.56460
3594.99497	0.57929
3593.06633	0.59406
3591.13768	0.60861
3589.20904	0.62240
3587.28039	0.63485
3585.35175	0.64581
3583.42310	0.65594
3581.49446	0.66653
3579.56581	0.67887
3577.63717	0.69358
3575.70852	0.71034
3573.77988	0.72796
3571.85123	0.74496
3569.92258	0.76029
3567.99394	0.77383
3566.06529	0.78630
3564.13665	0.79864
3562.20800	0.81143
3560.27936	0.82466
3558.35071	0.83788
3556.42207	0.85065
3554.49342	0.86290
3552.56478	0.87514
3550.63613	0.88809
3548.70749	0.90231
3546.77884	0.91778
3544.85019	0.93391
3542.92155	0.94987
3540.99290	0.96494
3539.06426	0.97881
3537.13561	0.99156
3535.20697	1.00359
3533.27832	1.01546
3531.34968	1.02786
3529.42103	1.04146
3527.49239	1.05663
3525.56374	1.07303
3523.63510	1.08960
3521.70645	1.10498
3519.77780	1.11831
3517.84916	1.12978
3515.92051	1.14064
3513.99187	1.15267
3512.06322	1.16715
3510.13458	1.18412
3508.20593	1.20240
3506.27729	1.22022
3504.34864	1.23614
3502.42000	1.24958
3500.49135	1.26089
3498.56271	1.27091
3496.63406	1.28044
3494.70541	1.28985
3492.77677	1.29899
3490.84812	1.30738
3488.91948	1.31467
3486.99083	1.32097
3485.06219	1.32695
3483.13354	1.33354
3481.20490	1.34155
3479.27625	1.35132
3477.34761	1.36261
3475.41896	1.37481
3473.49032	1.38732
3471.56167	1.39993
3469.63302	1.41272
3467.70438	1.42574
3465.77573	1.43878
3463.84709	1.45134
3461.91844	1.46282
3459.98980	1.47288
3458.06115	1.48176
3456.13251	1.49012
3454.20386	1.49873
3452.27522	1.50789
3450.34657	1.51738
3448.41793	1.52663
3446.48928	1.53513
3444.56064	1.54261
3442.63199	1.54923
3440.70334	1.55544
3438.77470	1.56165
3436.84605	1.56808
3434.91741	1.57478
3432.98876	1.58183
3431.06012	1.58924
3429.13147	1.59693
3427.20283	1.60468
3425.27418	1.61224
3423.34554	1.61941
3421.41689	1.62614
3419.48825	1.63255
3417.55960	1.63890
3415.63095	1.64534
3413.70231	1.65168
3411.77366	1.65751
3409.84502	1.66239
3407.91637	1.66609
3405.98773	1.66871
3404.05908	1.67074
3402.13044	1.67293
3400.20179	1.67595
3398.27315	1.68000
3396.34450	1.68473
3394.41586	1.68949
3392.48721	1.69361
3390.55856	1.69676
3388.62992	1.69895
3386.70127	1.70043
3384.77263	1.70142
3382.84398	1.70187
3380.91534	1.70153
3378.98669	1.70018
3377.05805	1.69799
3375.12940	1.69556
3373.20076	1.69372
3371.27211	1.69327
3369.34347	1.69466
3367.41482	1.69776
3365.48617	1.70187
3363.55753	1.70592
3361.62888	1.70892
3359.70024	1.71030
3357.77159	1.71003
3355.84295	1.70855
3353.91430	1.70648
3351.98566	1.70425
3350.05701	1.70194
3348.12837	1.69938
3346.19972	1.69643
3344.27108	1.69316
3342.34243	1.68986
3340.41378	1.68696
3338.48514	1.68479
3336.55649	1.68337
3334.62785	1.68245
3332.69920	1.68174
3330.77056	1.68110
3328.84191	1.68060
3326.91327	1.68041
3324.98462	1.68068
3323.05598	1.68145
3321.12733	1.68255
3319.19869	1.68379
3317.27004	1.68511
3315.34140	1.68659
3313.41275	1.68826
3311.48410	1.68997
3309.55546	1.69136
3307.62681	1.69202
3305.69817	1.69159
3303.76952	1.68998
3301.84088	1.68739
3299.91223	1.68427
3297.98359	1.68118
3296.05494	1.67870
3294.12630	1.67737
3292.19765	1.67752
3290.26901	1.67902
3288.34036	1.68119
3286.41171	1.68295
3284.48307	1.68317
3282.55442	1.68106
3280.62578	1.67658
3278.69713	1.67035
3276.76849	1.66339
3274.83984	1.65662
3272.91120	1.65047
3270.98255	1.64491
3269.05391	1.63962
3267.12526	1.63435
3265.19662	1.62908
3263.26797	1.62410
3261.33932	1.61965
3259.41068	1.61573
3257.48203	1.61200
3255.55339	1.60793
3253.62474	1.60307
3251.69610	1.59722
3249.76745	1.59042
3247.83881	1.58282
3245.91016	1.57450
3243.98152	1.56555
3242.05287	1.55612
3240.12423	1.54648
3238.19558	1.53704
3236.26693	1.52834
3234.33829	1.52082
3232.40964	1.51478
3230.48100	1.51028
3228.55235	1.50731
3226.62371	1.50565
3224.69506	1.50481
3222.76642	1.50400
3220.83777	1.50228
3218.90913	1.49881
3216.98048	1.49306
3215.05184	1.48496
3213.12319	1.47495
3211.19455	1.46390
3209.26590	1.45279
3207.33725	1.44231
3205.40861	1.43278
3203.47996	1.42425
3201.55132	1.41668
3199.62267	1.41006
3197.69403	1.40446
3195.76538	1.39999
3193.83674	1.39649
3191.90809	1.39336
3189.97945	1.38974
3188.05080	1.38483
3186.12216	1.37821
3184.19351	1.36993
3182.26486	1.36049
3180.33622	1.35060
3178.40757	1.34087
3176.47893	1.33167
3174.55028	1.32305
3172.62164	1.31493
3170.69299	1.30719
3168.76435	1.29981
3166.83570	1.29279
3164.90706	1.28604
3162.97841	1.27933
3161.04977	1.27238
3159.12112	1.26492
3157.19247	1.25698
3155.26383	1.24883
3153.33518	1.24099
3151.40654	1.23383
3149.47789	1.22742
3147.54925	1.22149
3145.62060	1.21565
3143.69196	1.20963
3141.76331	1.20339
3139.83467	1.19715
3137.90602	1.19128
3135.97738	1.18608
3134.04873	1.18158
3132.12008	1.17750
3130.19144	1.17325
3128.26279	1.16813
3126.33415	1.16159
3124.40550	1.15362
3122.47686	1.14491
3120.54821	1.13661
3118.61957	1.12984
3116.69092	1.12519
3114.76228	1.12240
3112.83363	1.12053
3110.90499	1.11831
3108.97634	1.11483
3107.04769	1.10993
3105.11905	1.10418
3103.19040	1.09856
3101.26176	1.09390
3099.33311	1.09045
3097.40447	1.08777
3095.47582	1.08489
3093.54718	1.08069
3091.61853	1.07453
3089.68989	1.06656
3087.76124	1.05770
3085.83260	1.04917
3083.90395	1.04196
3081.97531	1.03651
3080.04666	1.03260
3078.11801	1.02956
3076.18937	1.02668
3074.26072	1.02353
3072.33208	1.01992
3070.40343	1.01579
3068.47479	1.01110
3066.54614	1.00579
3064.61750	0.99978
3062.68885	0.99311
3060.76021	0.98587
3058.83156	0.97827
3056.90292	0.97051
3054.97427	0.96282
3053.04562	0.95549
3051.11698	0.94878
3049.18833	0.94288
3047.25969	0.93791
3045.33104	0.93376
3043.40240	0.93018
3041.47375	0.92679
3039.54511	0.92326
3037.61646	0.91926
3035.68782	0.91459
3033.75917	0.90913
3031.83053	0.90301
3029.90188	0.89658
3027.97323	0.89041
3026.04459	0.88507
3024.11594	0.88093
3022.18730	0.87791
3020.25865	0.87541
3018.33001	0.87256
3016.40136	0.86873
3014.47272	0.86391
3012.54407	0.85883
3010.61543	0.85463
3008.68678	0.85232
3006.75814	0.85209
3004.82949	0.85311
3002.90084	0.85397
3000.97220	0.85335
2999.04355	0.85078
2997.11491	0.84694
2995.18626	0.84361
2993.25762	0.84276
2991.32897	0.84545
2989.40033	0.85140
2987.47168	0.85934
2985.54304	0.86751
2983.61439	0.87424
2981.68575	0.87881
2979.75710	0.88169
2977.82845	0.88397
2975.89981	0.88666
2973.97116	0.89047
2972.04252	0.89594
2970.11387	0.90322
2968.18523	0.91195
2966.25658	0.92131
2964.32794	0.93016
2962.39929	0.93705
2960.47065	0.94055
2958.54200	0.94017
2956.61336	0.93696
2954.68471	0.93298
2952.75607	0.93030
2950.82742	0.93012
2948.89877	0.93233
2946.97013	0.93572
2945.04148	0.93883
2943.11284	0.94113
2941.18419	0.94348
2939.25555	0.94746
2937.32690	0.95428
2935.39826	0.96415
2933.46961	0.97617
2931.54097	0.98871
2929.61232	1.00016
2927.68368	1.00937
2925.75503	1.01562
2923.82638	1.01820
2921.89774	1.01612
2919.96909	1.00833
2918.04045	0.99421
2916.11180	0.97410
2914.18316	0.94974
2912.25451	0.92384
2910.32587	0.89912
2908.39722	0.87749
2906.46858	0.85980
2904.53993	0.84573
2902.61129	0.83420
2900.68264	0.82414
2898.75399	0.81511
2896.82535	0.80701
2894.89670	0.79962
2892.96806	0.79272
2891.03941	0.78624
2889.11077	0.78003
2887.18212	0.77394
2885.25348	0.76792
2883.32483	0.76202
2881.39619	0.75630
2879.46754	0.75103
2877.53890	0.74665
2875.61025	0.74346
2873.68160	0.74142
2871.75296	0.74031
2869.82431	0.73965
2867.89567	0.73890
2865.96702	0.73809
2864.03838	0.73804
2862.10973	0.73971
2860.18109	0.74347
2858.25244	0.74888
2856.32380	0.75473
2854.39515	0.75890
2852.46651	0.75884
2850.53786	0.75266
2848.60922	0.73998
2846.68057	0.72205
2844.75192	0.70147
2842.82328	0.68135
2840.89463	0.66415
2838.96599	0.65079
2837.03734	0.64068
2835.10870	0.63249
2833.18005	0.62502
2831.25141	0.61775
2829.32276	0.61079
2827.39412	0.60467
2825.46547	0.59971
2823.53683	0.59568
2821.60818	0.59189
2819.67953	0.58769
2817.75089	0.58272
2815.82224	0.57695
2813.89360	0.57064
2811.96495	0.56444
2810.03631	0.55903
2808.10766	0.55454
2806.17902	0.55052
2804.25037	0.54643
2802.32173	0.54210
2800.39308	0.53784
2798.46444	0.53429
2796.53579	0.53216
2794.60714	0.53178
2792.67850	0.53267
2790.74985	0.53374
2788.82121	0.53395
2786.89256	0.53291
2784.96392	0.53083
2783.03527	0.52797
2781.10663	0.52456
2779.17798	0.52101
2777.24934	0.51775
2775.32069	0.51495
2773.39205	0.51271
2771.46340	0.51110
2769.53475	0.50990
2767.60611	0.50847
2765.67746	0.50631
2763.74882	0.50344
2761.82017	0.50027
2759.89153	0.49716
2757.96288	0.49438
2756.03424	0.49203
2754.10559	0.49003
2752.17695	0.48827
2750.24830	0.48669
2748.31966	0.48521
2746.39101	0.48365
2744.46236	0.48176
2742.53372	0.47925
2740.60507	0.47604
2738.67643	0.47255
2736.74778	0.46945
2734.81914	0.46724
2732.89049	0.46601
2730.96185	0.46566
2729.03320	0.46581
2727.10456	0.46580
2725.17591	0.46507
2723.24727	0.46345
2721.31862	0.46087
2719.38998	0.45731
2717.46133	0.45306
2715.53268	0.44881
2713.60404	0.44528
2711.67539	0.44293
2709.74675	0.44179
2707.81810	0.44145
2705.88946	0.44116
2703.96081	0.44026
2702.03217	0.43856
2700.10352	0.43637
2698.17488	0.43419
2696.24623	0.43236
2694.31759	0.43075
2692.38894	0.42885
2690.46029	0.42610
2688.53165	0.42246
2686.60300	0.41849
2684.67436	0.41512
2682.74571	0.41306
2680.81707	0.41243
2678.88842	0.41277
2676.95978	0.41320
2675.03113	0.41286
2673.10249	0.41138
2671.17384	0.40914
2669.24520	0.40696
2667.31655	0.40547
2665.38790	0.40480
2663.45926	0.40466
2661.53061	0.40440
2659.60197	0.40326
2657.67332	0.40072
2655.74468	0.39695
2653.81603	0.39269
2651.88739	0.38884
2649.95874	0.38592
2648.03010	0.38395
2646.10145	0.38254
2644.17281	0.38122
2642.24416	0.37974
2640.31551	0.37831
2638.38687	0.37742
2636.45822	0.37732
2634.52958	0.37754
2632.60093	0.37714
2630.67229	0.37524
2628.74364	0.37141
2626.81500	0.36595
2624.88635	0.35991
2622.95771	0.35467
2621.02906	0.35101
2619.10042	0.34893
2617.17177	0.34808
2615.24312	0.34805
2613.31448	0.34836
2611.38583	0.34856
2609.45719	0.34848
2607.52854	0.34815
2605.59990	0.34755
2603.67125	0.34655
2601.74261	0.34518
2599.81396	0.34361
2597.88532	0.34195
2595.95667	0.34015
2594.02803	0.33788
2592.09938	0.33462
2590.17074	0.33015
2588.24209	0.32500
2586.31344	0.32030
2584.38480	0.31715
2582.45615	0.31632
2580.52751	0.31794
2578.59886	0.32105
2576.67022	0.32388
2574.74157	0.32502
2572.81293	0.32444
2570.88428	0.32315
2568.95564	0.32226
2567.02699	0.32240
2565.09835	0.32355
2563.16970	0.32498
2561.24105	0.32567
2559.31241	0.32506
2557.38376	0.32361
2555.45512	0.32243
2553.52647	0.32251
2551.59783	0.32407
2549.66918	0.32640
2547.74054	0.32827
2545.81189	0.32856
2543.88325	0.32689
2541.95460	0.32366
2540.02596	0.31960
2538.09731	0.31528
2536.16866	0.31110
2534.24002	0.30752
2532.31137	0.30515
2530.38273	0.30442
2528.45408	0.30543
2526.52544	0.30781
2524.59679	0.31058
2522.66815	0.31261
2520.73950	0.31335
2518.81086	0.31318
2516.88221	0.31264
2514.95357	0.31153
2513.02492	0.30913
2511.09627	0.30525
2509.16763	0.30078
2507.23898	0.29728
2505.31034	0.29609
2503.38169	0.29764
2501.45305	0.30116
2499.52440	0.30486
2497.59576	0.30704
2495.66711	0.30764
2493.73847	0.30812
2491.80982	0.30999
2489.88118	0.31368
2487.95253	0.31858
2486.02389	0.32333
2484.09524	0.32617
2482.16659	0.32585
2480.23795	0.32244
2478.30930	0.31697
2476.38066	0.31060
2474.45201	0.30464
2472.52337	0.30047
2470.59472	0.29906
2468.66608	0.30039
2466.73743	0.30343
2464.80879	0.30657
2462.88014	0.30832
2460.95150	0.30808
2459.02285	0.30645
2457.09420	0.30484
2455.16556	0.30480
2453.23691	0.30714
2451.30827	0.31134
2449.37962	0.31574
2447.45098	0.31845
2445.52233	0.31818
2443.59369	0.31443
2441.66504	0.30757
2439.73640	0.29890
2437.80775	0.29050
2435.87911	0.28442
2433.95046	0.28173
2432.02181	0.28204
2430.09317	0.28389
2428.16452	0.28565
2426.23588	0.28660
2424.30723	0.28735
2422.37859	0.28913
2420.44994	0.29264
2418.52130	0.29734
2416.59265	0.30136
2414.66401	0.30254
2412.73536	0.29989
2410.80672	0.29452
2408.87807	0.28899
2406.94942	0.28560
2405.02078	0.28530
2403.09213	0.28754
2401.16349	0.29092
2399.23484	0.29403
2397.30620	0.29624
2395.37755	0.29787
2393.44891	0.29962
2391.52026	0.30189
2389.59162	0.30453
2387.66297	0.30715
2385.73433	0.30940
2383.80568	0.31090
2381.87703	0.31091
2379.94839	0.30846
2378.01974	0.30295
2376.09110	0.29504
2374.16245	0.28703
2372.23381	0.28215
2370.30516	0.28283
2368.37652	0.28895
2366.44787	0.29718
2364.51923	0.30249
2362.59058	0.30087
2360.66194	0.29188
2358.73329	0.27897
2356.80465	0.26747
2354.87600	0.26158
2352.94735	0.26245
2351.01871	0.26816
2349.09006	0.27541
2347.16142	0.28182
2345.23277	0.28710
2343.30413	0.29256
2341.37548	0.29949
2339.44684	0.30785
2337.51819	0.31627
2335.58955	0.32294
2333.66090	0.32660
2331.73226	0.32683
2329.80361	0.32404
2327.87496	0.31904
2325.94632	0.31261
2324.01767	0.30520
2322.08903	0.29710
2320.16038	0.28885
2318.23174	0.28129
2316.30309	0.27534
2314.37445	0.27175
2312.44580	0.27096
2310.51716	0.27274
2308.58851	0.27606
2306.65987	0.27937
2304.73122	0.28122
2302.80257	0.28088
2300.87393	0.27852
2298.94528	0.27504
2297.01664	0.27147
2295.08799	0.26846
2293.15935	0.26609
2291.23070	0.26410
2289.30206	0.26219
2287.37341	0.26036
2285.44477	0.25885
2283.51612	0.25785
2281.58748	0.25717
2279.65883	0.25644
2277.73018	0.25537
2275.80154	0.25389
2273.87289	0.25200
2271.94425	0.24976
2270.01560	0.24735
2268.08696	0.24495
2266.15831	0.24261
2264.22967	0.24050
2262.30102	0.23891
2260.37238	0.23778
2258.44373	0.23646
2256.51509	0.23450
2254.58644	0.23251
2252.65779	0.23160
2250.72915	0.23203
2248.80050	0.23241
2246.87186	0.23024
2244.94321	0.22334
2243.01457	0.21153
2241.08592	0.19796
2239.15728	0.18835
2237.22863	0.18719
2235.29999	0.19404
2233.37134	0.20362
2231.44270	0.20924
2229.51405	0.20668
2227.58541	0.19676
2225.65676	0.18509
2223.72811	0.17768
2221.79947	0.17528
2219.87082	0.17294
2217.94218	0.16450
2216.01353	0.14633
2214.08489	0.11834
2212.15624	0.08481
2210.22760	0.05406
2208.29895	0.03413
2206.37031	0.02862
2204.44166	0.03812
2202.51302	0.06251
2200.58437	0.09879
2198.65572	0.13888
2196.72708	0.17255
2194.79843	0.19324
2192.86979	0.19924
2190.94114	0.19102
2189.01250	0.17053
2187.08385	0.14206
2185.15521	0.11126
2183.22656	0.08299
2181.29792	0.06141
2179.36927	0.05084
2177.44063	0.05282
2175.51198	0.06263
2173.58333	0.07203
2171.65469	0.07569
2169.72604	0.07444
2167.79740	0.07353
2165.86875	0.07841
2163.94011	0.09040
2162.01146	0.10472
2160.08282	0.11431
2158.15417	0.11593
2156.22553	0.11191
2154.29688	0.10796
2152.36824	0.10985
2150.43959	0.11973
2148.51094	0.13430
2146.58230	0.14796
2144.65365	0.15804
2142.72501	0.16626
2140.79636	0.17532
2138.86772	0.18578
2136.93907	0.19550
2135.01043	0.20056
2133.08178	0.19755
2131.15314	0.18617
2129.22449	0.17007
2127.29585	0.15522
2125.36720	0.14692
2123.43856	0.14743
2121.50991	0.15594
2119.58126	0.17001
2117.65262	0.18639
2115.72397	0.20143
2113.79533	0.21194
2111.86668	0.21628
2109.93804	0.21427
2108.00939	0.20684
2106.08075	0.19616
2104.15210	0.18539
2102.22346	0.17712
2100.29481	0.17227
2098.36617	0.17027
2096.43752	0.16983
2094.50887	0.16952
2092.58023	0.16834
2090.65158	0.16633
2088.72294	0.16449
2086.79429	0.16397
2084.86565	0.16532
2082.93700	0.16813
2081.00836	0.17150
2079.07971	0.17497
2077.15107	0.17896
2075.22242	0.18425
2073.29378	0.19096
2071.36513	0.19780
2069.43648	0.20231
2067.50784	0.20202
2065.57919	0.19617
2063.65055	0.18655
2061.72190	0.17675
2059.79326	0.16996
2057.86461	0.16700
2055.93597	0.16567
2054.00732	0.16153
2052.07868	0.14993
2050.15003	0.12827
2048.22139	0.09753
2046.29274	0.06218
2044.36409	0.02916
2042.43545	0.00627
2040.50680	-0.00000
2038.57816	0.01270
2036.64951	0.04067
2034.72087	0.07457
2032.79222	0.10270
2030.86358	0.11596
2028.93493	0.11238
2027.00629	0.09859
2025.07764	0.08676
2023.14900	0.08811
2021.22035	0.10664
2019.29170	0.13690
2017.36306	0.16703
2015.43441	0.18496
2013.50577	0.18398
2011.57712	0.16484
2009.64848	0.13414
2007.71983	0.10071
2005.79119	0.07229
2003.86254	0.05368
2001.93390	0.04667
2000.00525	0.05073
1998.07661	0.06360
1996.14796	0.08096
1994.21932	0.09722
1992.29067	0.10763
1990.36202	0.10964
1988.43338	0.10475
1986.50473	0.09799
1984.57609	0.09590
1982.64744	0.10355
1980.71880	0.12174
1978.79015	0.14575
1976.86151	0.16741
1974.93286	0.17955
1973.00422	0.17977
1971.07557	0.17108
1969.14693	0.15974
1967.21828	0.15221
1965.28963	0.15185
1963.36099	0.15735
1961.43234	0.16417
1959.50370	0.16802
1957.57505	0.16742
1955.64641	0.16363
1953.71776	0.15921
1951.78912	0.15645
1949.86047	0.15615
1947.93183	0.15745
1946.00318	0.15904
1944.07454	0.16049
1942.14589	0.16242
1940.21724	0.16574
1938.28860	0.17075
1936.35995	0.17657
1934.43131	0.18133
1932.50266	0.18321
1930.57402	0.18166
1928.64537	0.17758
1926.71673	0.17287
1924.78808	0.16968
1922.85944	0.16950
1920.93079	0.17243
1919.00215	0.17712
1917.07350	0.18144
1915.14485	0.18331
1913.21621	0.18139
1911.28756	0.17563
1909.35892	0.16748
1907.43027	0.15932
1905.50163	0.15349
1903.57298	0.15160
1901.64434	0.15414
1899.71569	0.16046
1897.78705	0.16908
1895.85840	0.17830
1893.92976	0.18688
1892.00111	0.19427
1890.07246	0.20047
1888.14382	0.20570
1886.21517	0.21015
1884.28653	0.21367
1882.35788	0.21564
1880.42924	0.21523
1878.50059	0.21199
1876.57195	0.20616
1874.64330	0.19851
1872.71466	0.19003
1870.78601	0.18169
1868.85737	0.17421
1866.92872	0.16798
1865.00008	0.16315
1863.07143	0.15985
1861.14278	0.15827
1859.21414	0.15851
1857.28549	0.16027
1855.35685	0.16290
1853.42820	0.16555
1851.49956	0.16746
1849.57091	0.16818
1847.64227	0.16786
1845.71362	0.16713
1843.78498	0.16676
1841.85633	0.16718
1839.92769	0.16829
1837.99904	0.16953
1836.07039	0.17022
1834.14175	0.17004
1832.21310	0.16932
1830.28446	0.16890
1828.35581	0.16963
1826.42717	0.17182
1824.49852	0.17499
1822.56988	0.17802
1820.64123	0.17974
1818.71259	0.17953
1816.78394	0.17770
1814.85530	0.17530
1812.92665	0.17360
1810.99800	0.17338
1809.06936	0.17473
1807.14071	0.17709
1805.21207	0.17959
1803.28342	0.18144
1801.35478	0.18228
1799.42613	0.18226
1797.49749	0.18184
1795.56884	0.18151
1793.64020	0.18167
1791.71155	0.18262
1789.78291	0.18449
1787.85426	0.18730
1785.92561	0.19096
1783.99697	0.19527
1782.06832	0.19983
1780.13968	0.20411
1778.21103	0.20763
1776.28239	0.21010
1774.35374	0.21152
1772.42510	0.21211
1770.49645	0.21229
1768.56781	0.21257
1766.63916	0.21345
1764.71052	0.21546
1762.78187	0.21910
1760.85322	0.22466
1758.92458	0.23206
1756.99593	0.24079
1755.06729	0.25016
1753.13864	0.25950
1751.21000	0.26850
1749.28135	0.27724
1747.35271	0.28605
1745.42406	0.29526
1743.49542	0.30503
1741.56677	0.31537
1739.63813	0.32613
1737.70948	0.33721
1735.78084	0.34857
1733.85219	0.36020
1731.92354	0.37205
1729.99490	0.38397
1728.06625	0.39572
1726.13761	0.40700
1724.20896	0.41745
1722.28032	0.42687
1720.35167	0.43526
1718.42303	0.44294
1716.49438	0.45043
1714.56574	0.45831
1712.63709	0.46710
1710.70845	0.47717
1708.77980	0.48882
1706.85115	0.50232
1704.92251	0.51788
1702.99386	0.53570
1701.06522	0.55578
1699.13657	0.57790
1697.20793	0.60156
1695.27928	0.62614
1693.35064	0.65120
1691.42199	0.67664
1689.49335	0.70266
1687.56470	0.72970
1685.63606	0.75814
1683.70741	0.78810
1681.77876	0.81927
1679.85012	0.85101
1677.92147	0.88264
1675.99283	0.91371
1674.06418	0.94423
1672.13554	0.97455
1670.20689	1.00520
1668.27825	1.03654
1666.34960	1.06851
1664.42096	1.10059
1662.49231	1.13190
1660.56367	1.16148
1658.63502	1.18856
1656.70637	1.21267
1654.77773	1.23365
1652.84908	1.25165
1650.92044	1.26699
1648.99179	1.28007
1647.06315	1.29128
1645.13450	1.30086
1643.20586	1.30887
1641.27721	1.31519
1639.34857	1.31957
1637.41992	1.32177
1635.49128	1.32163
1633.56263	1.31907
1631.63399	1.31404
1629.70534	1.30661
1627.77669	1.29700
1625.84805	1.28564
1623.91940	1.27319
1621.99076	1.26052
1620.06211	1.24847
1618.13347	1.23769
1616.20482	1.22846
1614.27618	1.22070
1612.34753	1.21413
1610.41889	1.20838
1608.49024	1.20316
1606.56160	1.19837
1604.63295	1.19395
1602.70430	1.18982
1600.77566	1.18574
1598.84701	1.18129
1596.91837	1.17593
1594.98972	1.16912
1593.06108	1.16055
1591.13243	1.15023
1589.20379	1.13855
1587.27514	1.12624
1585.34650	1.11423
1583.41785	1.10340
1581.48921	1.09435
1579.56056	1.08720
1577.63191	1.08163
1575.70327	1.07702
1573.77462	1.07277
1571.84598	1.06844
1569.91733	1.06382
1567.98869	1.05882
1566.06004	1.05333
1564.13140	1.04714
1562.20275	1.03995
1560.27411	1.03150
1558.34546	1.02161
1556.41682	1.01024
1554.48817	0.99735
1552.55952	0.98282
1550.63088	0.96656
1548.70223	0.94858
1546.77359	0.92911
1544.84494	0.90861
1542.91630	0.88772
1540.98765	0.86712
1539.05901	0.84735
1537.13036	0.82879
1535.20172	0.81170
1533.27307	0.79635
1531.34443	0.78307
1529.41578	0.77221
1527.48713	0.76393
1525.55849	0.75797
1523.62984	0.75349
1521.70120	0.74913
1519.77255	0.74329
1517.84391	0.73457
1515.91526	0.72218
1513.98662	0.70608
1512.05797	0.68691
1510.12933	0.66563
1508.20068	0.64329
1506.27204	0.62070
1504.34339	0.59846
1502.41475	0.57686
1500.48610	0.55607
1498.55745	0.53619
1496.62881	0.51735
1494.70016	0.49973
1492.77152	0.48364
1490.84287	0.46948
1488.91423	0.45767
1486.98558	0.44864
1485.05694	0.44282
1483.12829	0.44070
1481.19965	0.44281
1479.27100	0.44961
1477.34236	0.46133
1475.41371	0.47767
1473.48506	0.49769
1471.55642	0.51974
1469.62777	0.54180
1467.69913	0.56187
1465.77048	0.57839
1463.84184	0.59055
1461.91319	0.59832
1459.98455	0.60221
1458.05590	0.60300
1456.12726	0.60135
1454.19861	0.59781
1452.26997	0.59280
1450.34132	0.58676
1448.41267	0.58032
1446.48403	0.57422
1444.55538	0.56932
1442.62674	0.56638
1440.69809	0.56606
1438.76945	0.56879
1436.84080	0.57486
1434.91216	0.58439
1432.98351	0.59727
1431.05487	0.61312
1429.12622	0.63132
1427.19758	0.65110
1425.26893	0.67156
1423.34028	0.69191
1421.41164	0.71149
1419.48299	0.72985
1417.55435	0.74655
1415.62570	0.76125
1413.69706	0.77362
1411.76841	0.78348
1409.83977	0.79085
1407.91112	0.79598
1405.98248	0.79925
1404.05383	0.80105
1402.12519	0.80162
1400.19654	0.80097
1398.26789	0.79899
1396.33925	0.79556
1394.41060	0.79059
1392.48196	0.78422
1390.55331	0.77673
1388.62467	0.76851
1386.69602	0.75996
1384.76738	0.75132
1382.83873	0.74263
1380.91009	0.73376
1378.98144	0.72446
1377.05280	0.71448
1375.12415	0.70369
1373.19551	0.69205
1371.26686	0.67964
1369.33821	0.66664
1367.40957	0.65338
1365.48092	0.64035
1363.55228	0.62812
1361.62363	0.61720
1359.69499	0.60783
1357.76634	0.59996
1355.83770	0.59324
1353.90905	0.58712
1351.98041	0.58112
1350.05176	0.57493
1348.12312	0.56855
1346.19447	0.56214
1344.26582	0.55596
1342.33718	0.55026
1340.40853	0.54521
1338.47989	0.54083
1336.55124	0.53700
1334.62260	0.53354
1332.69395	0.53025
1330.76531	0.52695
1328.83666	0.52353
1326.90802	0.51996
1324.97937	0.51622
1323.05073	0.51228
1321.12208	0.50805
1319.19343	0.50340
1317.26479	0.49831
1315.33614	0.49301
1313.40750	0.48798
1311.47885	0.48391
1309.55021	0.48133
1307.62156	0.48053
1305.69292	0.48136
1303.76427	0.48338
1301.83563	0.48602
1299.90698	0.48872
1297.97834	0.49112
1296.04969	0.49305
1294.12104	0.49459
1292.19240	0.49599
1290.26375	0.49772
1288.33511	0.50024
1286.40646	0.50390
1284.47782	0.50868
1282.54917	0.51429
1280.62053	0.52029
1278.69188	0.52632
1276.76324	0.53218
1274.83459	0.53784
1272.90595	0.54337
1270.97730	0.54875
1269.04866	0.55385
1267.12001	0.55836
1265.19136	0.56195
1263.26272	0.56440
1261.33407	0.56562
1259.40543	0.56572
1257.47678	0.56500
1255.54814	0.56396
1253.61949	0.56305
1251.69085	0.56257
1249.76220	0.56256
1247.83356	0.56291
1245.90491	0.56348
1243.97627	0.56425
1242.04762	0.56536
1240.11897	0.56708
1238.19033	0.56963
1236.26168	0.57299
1234.33304	0.57689
1232.40439	0.58096
1230.47575	0.58487
1228.54710	0.58851
1226.61846	0.59193
1224.68981	0.59522
1222.76117	0.59835
1220.83252	0.60098
1218.90388	0.60260
1216.97523	0.60270
1215.04658	0.60116
1213.11794	0.59841
1211.18929	0.59536
1209.26065	0.59309
1207.33200	0.59240
1205.40336	0.59353
1203.47471	0.59613
1201.54607	0.59966
1199.61742	0.60385
1197.68878	0.60882
1195.76013	0.61500
1193.83149	0.62301
1191.90284	0.63335
1189.97419	0.64618
1188.04555	0.66127
1186.11690	0.67838
1184.18826	0.69747
1182.25961	0.71843
1180.33097	0.74090
1178.40232	0.76451
1176.47368	0.78905
1174.54503	0.81448
1172.61639	0.84094
1170.68774	0.86869
1168.75910	0.89800
1166.83045	0.92871
1164.90180	0.96023
1162.97316	0.99164
1161.04451	1.02209
1159.11587	1.05106
1157.18722	1.07837
1155.25858	1.10411
1153.32993	1.12884
1151.40129	1.15378
1149.47264	1.18016
1147.54400	1.20870
1145.61535	1.23963
1143.68671	1.27303
1141.75806	1.30873
1139.82942	1.34661
1137.90077	1.38718
1135.97212	1.43116
1134.04348	1.47815
1132.11483	1.52619
1130.18619	1.57257
1128.25754	1.61467
1126.32890	1.65053
1124.40025	1.67952
1122.47161	1.70266
1120.54296	1.72186
1118.61432	1.73885
1116.68567	1.75485
1114.75703	1.77065
1112.82838	1.78673
1110.89973	1.80339
1108.97109	1.82083
1107.04244	1.83904
1105.11380	1.85771
1103.18515	1.87629
1101.25651	1.89414
1099.32786	1.91081
1097.39922	1.92622
1095.47057	1.94069
1093.54193	1.95460
1091.61328	1.96786
1089.68464	1.97987
1087.75599	1.98970
1085.82734	1.99651
1083.89870	1.99988
1081.97005	2.00000
1080.04141	1.99736
1078.11276	1.99224
1076.18412	1.98435
1074.25547	1.97307
1072.32683	1.95794
1070.39818	1.93891
1068.46954	1.91654
1066.54089	1.89210
1064.61225	1.86716
1062.68360	1.84283
1060.75495	1.81945
1058.82631	1.79690
1056.89766	1.77497
1054.96902	1.75321
1053.04037	1.73106
1051.11173	1.70839
1049.18308	1.68570
1047.25444	1.66385
1045.32579	1.64361
1043.39715	1.62552
1041.46850	1.60953
1039.53986	1.59464
1037.61121	1.57900
1035.68256	1.56073
1033.75392	1.53894
1031.82527	1.51383
1029.89663	1.48622
1027.96798	1.45723
1026.03934	1.42800
1024.11069	1.39929
1022.18205	1.37135
1020.25340	1.34396
1018.32476	1.31704
1016.39611	1.29085
1014.46747	1.26590
1012.53882	1.24268
1010.61018	1.22148
1008.68153	1.20237
1006.75288	1.18511
1004.82424	1.16921
1002.89559	1.15425
1000.96695	1.14017
999.03830	1.12720
997.10966	1.11530
995.18101	1.10404
993.25237	1.09288
991.32372	1.08157
989.39508	1.06998
987.46643	1.05779
985.53779	1.04421
983.60914	1.02802
981.68049	1.00779
979.75185	0.98241
977.82320	0.95180
975.89456	0.91711
973.96591	0.88027
972.03727	0.84335
970.10862	0.80812
968.17998	0.77565
966.25133	0.74607
964.32269	0.71898
962.39404	0.69396
960.46540	0.67054
958.53675	0.64811
956.60810	0.62640
954.67946	0.60586
952.75081	0.58731
950.82217	0.57133
948.89352	0.55822
946.96488	0.54786
945.03623	0.53923
943.10759	0.53039
941.17894	0.51974
939.25030	0.50720
937.32165	0.49420
935.39301	0.48269
933.46436	0.47451
931.53571	0.47088
929.60707	0.47160
927.67842	0.47490
925.74978	0.47841
923.82113	0.48056
921.89249	0.48083
919.96384	0.47906
918.03520	0.47518
916.10655	0.46951
914.17791	0.46251
912.24926	0.45444
910.32062	0.44540
908.39197	0.43606
906.46333	0.42769
904.53468	0.42120
902.60603	0.41688
900.67739	0.41477
898.74874	0.41462
896.82010	0.41552
894.89145	0.41613
892.96281	0.41544
891.03416	0.41321
889.10552	0.41008
887.17687	0.40744
885.24823	0.40669
883.31958	0.40804
881.39094	0.41024
879.46229	0.41133
877.53364	0.40973
875.60500	0.40496
873.67635	0.39817
871.74771	0.39173
869.81906	0.38758
867.89042	0.38605
865.96177	0.38631
864.03313	0.38746
862.10448	0.38878
860.17584	0.38973
858.24719	0.39021
856.31855	0.39055
854.38990	0.39062
852.46125	0.38966
850.53261	0.38722
848.60396	0.38372
846.67532	0.37971
844.74667	0.37533
842.81803	0.37084
840.88938	0.36687
838.96074	0.36368
837.03209	0.36073
835.10345	0.35749
833.17480	0.35418
831.24616	0.35143
829.31751	0.34954
827.38886	0.34853
825.46022	0.34854
823.53157	0.34945
821.60293	0.35046
819.67428	0.35069
817.74564	0.35026
815.81699	0.34991
813.88835	0.34985
811.95970	0.34981
810.03106	0.35012
808.10241	0.35204
806.17377	0.35694
804.24512	0.36544
802.31647	0.37689
800.38783	0.38911
798.45918	0.39884
796.53054	0.40330
794.60189	0.40206
792.67325	0.39737
790.74460	0.39301
788.81596	0.39224
786.88731	0.39592
784.95867	0.40206
783.03002	0.40728
781.10138	0.40865
779.17273	0.40498
777.24409	0.39692
775.31544	0.38658
773.38679	0.37650
771.45815	0.36851
769.52950	0.36332
767.60086	0.36103
765.67221	0.36157
763.74357	0.36485
761.81492	0.37038
759.88628	0.37697
757.95763	0.38299
756.02899	0.38708
754.10034	0.38830
752.17170	0.38595
750.24305	0.38013
748.31440	0.37244
746.38576	0.36542
744.45711	0.36112
742.52847	0.36057
740.59982	0.36395
738.67118	0.37009
736.74253	0.37671
734.81389	0.38162
732.88524	0.38410
730.95660	0.38481
729.02795	0.38472
727.09931	0.38460
725.17066	0.38487
723.24201	0.38549
721.31337	0.38620
719.38472	0.38700
717.45608	0.38825
715.52743	0.39045
713.59879	0.39371
711.67014	0.39758
709.74150	0.40116
707.81285	0.40352
705.88421	0.40422
703.95556	0.40363
702.02692	0.40284
700.09827	0.40318
698.16962	0.40555
696.24098	0.40985
694.31233	0.41491
692.38369	0.41908
690.45504	0.42100
688.52640	0.42028
686.59775	0.41763
684.66911	0.41449
682.74046	0.41231
680.81182	0.41201
678.88317	0.41366
676.95453	0.41659
675.02588	0.41974
673.09723	0.42202
671.16859	0.42269
669.23994	0.42174
667.31130	0.41995
665.38265	0.41866
663.45401	0.41905
661.52536	0.42151
659.59672	0.42541
657.66807	0.42943
655.73943	0.43218
653.81078	0.43288
651.88214	0.43188
649.95349	0.43045
648.02485	0.43014
646.09620	0.43216
644.16755	0.43717
642.23891	0.44533
640.31026	0.45629
638.38162	0.46887
636.45297	0.48031
634.52433	0.48626
632.59568	0.48210
630.66704	0.46488
628.73839	0.43488
626.80975	0.39562
624.88110	0.35130
622.95246	0.30372
621.02381	0.25250
619.09516	0.19973
617.16652	0.15448
615.23787	0.13226
613.30923	0.14890
611.38058	0.21179
609.45194	0.31228
607.52329	0.42539
605.59465	0.52049
603.66600	0.57645
601.73736	0.59036
599.80871	0.57504
597.88007	0.54963
595.95142	0.52983
594.02277	0.52240
592.09413	0.52562
590.16548	0.53416
588.23684	0.54407
586.30819	0.55430
584.37955	0.56526
582.45090	0.57714
580.52226	0.58978
578.59361	0.60340
576.66497	0.61844
574.73632	0.63432
572.80768	0.64879
570.87903	0.65896
568.95038	0.66329
567.02174	0.66305
565.09309	0.66229
563.16445	0.66634
561.23580	0.67918
559.30716	0.70139
557.37851	0.73002
555.44987	0.76058
553.52122	0.78937
551.59258	0.81467
549.66393	0.83655
547.73529	0.85589
545.80664	0.87322
543.87800	0.88804
541.94935	0.89922
540.02070	0.90589
538.09206	0.90834
536.16341	0.90790
534.23477	0.90608
532.30612	0.90364
530.37748	0.90013
528.44883	0.89413
526.52019	0.88398
524.59154	0.86882
522.66290	0.84919
520.73425	0.82687
518.80561	0.80397
516.87696	0.78183
514.94831	0.76065
513.01967	0.73982
511.09102	0.71875
509.16238	0.69763
507.23373	0.67755
505.30509	0.65986
503.37644	0.64539
501.44780	0.63405
499.51915	0.62502
497.59051	0.61750
495.66186	0.61137
493.73322	0.60740
491.80457	0.60673
489.87592	0.61009
487.94728	0.61765
486.01863	0.62963
484.08999	0.64686
482.16134	0.67057
480.23270	0.70141
478.30405	0.73820
476.37541	0.77710
474.44676	0.81217
472.51812	0.83729
470.58947	0.84861
468.66083	0.84591
466.73218	0.83240
464.80353	0.81288
462.87489	0.79157
460.94624	0.77075
459.01760	0.75084
457.08895	0.73122
455.16031	0.71119
453.23166	0.69061
451.30302	0.66993
449.37437	0.64959
447.44573	0.62965
445.51708	0.61008
443.58844	0.59133
441.65979	0.57443
439.73114	0.56038
437.80250	0.54959
435.87385	0.54155
433.94521	0.53489
432.01656	0.52808
430.08792	0.52041
428.15927	0.51242
426.23063	0.50532
424.30198	0.49977
422.37334	0.49520
420.44469	0.48977
418.51605	0.48121
416.58740	0.46788
414.65876	0.44977
412.73011	0.42860
410.80146	0.40706
408.87282	0.38771
406.94417	0.37224
405.01553	0.36111
403.08688	0.35353
401.15824	0.34768
399.22959	0.34127
397.30095	0.33233
395.37230	0.31967
393.44366	0.30325
391.51501	0.28440
389.58637	0.26571
387.65772	0.25042
385.72907	0.24149
383.80043	0.24095
381.87178	0.24921
379.94314	0.26469
378.01449	0.28410
376.08585	0.30330
374.15720	0.31834
372.22856	0.32616
370.29991	0.32523
368.37127	0.31590
366.44262	0.30013
364.51398	0.28092
362.58533	0.26152
360.65668	0.24455
358.72804	0.23124
356.79939	0.22118
354.87075	0.21294
352.94210	0.20514
351.01346	0.19728
349.08481	0.18994
347.15617	0.18427
345.22752	0.18115
343.29888	0.18024
341.37023	0.17962
339.44159	0.17651
337.51294	0.16852
335.58429	0.15483
333.65565	0.13686
331.72700	0.11823
329.79836	0.10357
327.86971	0.09621
325.94107	0.09637
324.01242	0.10089
322.08378	0.10477
320.15513	0.10348
318.22649	0.09540
316.29784	0.08284
314.36920	0.07089
312.44055	0.06462
310.51190	0.06630
308.58326	0.07425
306.65461	0.08387
304.72597	0.09016
302.79732	0.09027
300.86868	0.08477
298.94003	0.07770
297.01139	0.07294
295.08274	0.07357
293.15410	0.08025
291.22545	0.09141
289.29681	0.10426
287.36816	0.11616
285.43952	0.12577
283.51087	0.13327
281.58222	0.13934
279.65358	0.14399
277.72493	0.14632
275.79629	0.14498
273.86764	0.13896
271.93900	0.12831
270.01035	0.11466
268.08171	0.10081
266.15306	0.08938
264.22442	0.08172
262.29577	0.07821
260.36713	0.07929
258.43848	0.08579
256.50983	0.09807
254.58119	0.11500
252.65254	0.13355
250.72390	0.14936
248.79525	0.15827
246.86661	0.15862
244.93796	0.15268
243.00932	0.14556
241.08067	0.14209
239.15203	0.14421
237.22338	0.15020
235.29474	0.15584
233.36609	0.15696
231.43744	0.15219
229.50880	0.14394
227.58015	0.13702
225.65151	0.13597
223.72286	0.14345
221.79422	0.16013
219.86557	0.18522
217.93693	0.21690
216.00828	0.25227
214.07964	0.28671
212.15099	0.31366
210.22235	0.32625
208.29370	0.32036
206.36505	0.29690
204.43641	0.26183
202.50776	0.22402
200.57912	0.19223
198.65047	0.17233
196.72183	0.16584
194.79318	0.17047
192.86454	0.18167
190.93589	0.19428
189.00725	0.20413
187.07860	0.20979
185.14996	0.21409
183.22131	0.22330
181.29267	0.24295
179.36402	0.27284
177.43537	0.30506
175.50673	0.32735
173.57808	0.32975
171.64944	0.31104
169.72079	0.28206
167.79215	0.26268
165.86350	0.27217
163.93486	0.31798
162.00621	0.39280
160.07757	0.47468
158.14892	0.54439
156.22028	0.59035
154.29163	0.59035
152.36298	0.59035
150.43434	0.59035
148.50569	0.59035
