4497.60101	0.04652
4495.67236	0.04652
4493.74372	0.04652
4491.81507	0.04652
4489.88643	0.04652
4487.95778	0.04675
4486.02914	0.04807
4484.10049	0.05076
4482.17185	0.05444
4480.24320	0.05793
4478.31455	0.05938
4476.38591	0.05770
4474.45726	0.05328
4472.52862	0.04760
4470.59997	0.04220
4468.67133	0.03823
4466.74268	0.03625
4464.81404	0.03624
4462.88539	0.03776
4460.95675	0.04076
4459.02810	0.04551
4457.09946	0.05140
4455.17081	0.05632
4453.24216	0.05814
4451.31352	0.05631
4449.38487	0.05194
4447.45623	0.04696
4445.52758	0.04360
4443.59894	0.04355
4441.67029	0.04658
4439.74165	0.05050
4437.81300	0.05312
4435.88436	0.05398
4433.95571	0.05386
4432.02707	0.05347
4430.09842	0.05330
4428.16978	0.05384
4426.24113	0.05501
4424.31248	0.05597
4422.38384	0.05616
4420.45519	0.05616
4418.52655	0.05675
4416.59790	0.05758
4414.66926	0.05769
4412.74061	0.05668
4410.81197	0.05484
4408.88332	0.05273
4406.95468	0.05098
4405.02603	0.05020
4403.09739	0.05051
4401.16874	0.05119
4399.24009	0.05137
4397.31145	0.05084
4395.38280	0.04980
4393.45416	0.04838
4391.52551	0.04657
4389.59687	0.04449
4387.66822	0.04257
4385.73958	0.04151
4383.81093	0.04188
4381.88229	0.04366
4379.95364	0.04616
4378.02500	0.04847
4376.09635	0.04994
4374.16770	0.05020
4372.23906	0.04913
4370.31041	0.04711
4368.38177	0.04469
4366.45312	0.04215
4364.52448	0.03961
4362.59583	0.03761
4360.66719	0.03676
4358.73854	0.03693
4356.80990	0.03745
4354.88125	0.03804
4352.95261	0.03875
4351.02396	0.03931
4349.09531	0.03939
4347.16667	0.03944
4345.23802	0.04030
4343.30938	0.04228
4341.38073	0.04501
4339.45209	0.04791
4337.52344	0.05016
4335.59480	0.05098
4333.66615	0.05037
4331.73751	0.04927
4329.80886	0.04858
4327.88022	0.04834
4325.95157	0.04761
4324.02292	0.04496
4322.09428	0.03971
4320.16563	0.03305
4318.23699	0.02779
4316.30834	0.02670
4314.37970	0.03089
4312.45105	0.03922
4310.52241	0.04881
4308.59376	0.05611
4306.66512	0.05849
4304.73647	0.05545
4302.80783	0.04864
4300.87918	0.04094
4298.95054	0.03512
4297.02189	0.03294
4295.09324	0.03481
4293.16460	0.03976
4291.23595	0.04565
4289.30731	0.05024
4287.37866	0.05240
4285.45002	0.05219
4283.52137	0.05004
4281.59273	0.04644
4279.66408	0.04211
4277.73544	0.03790
4275.80679	0.03435
4273.87815	0.03205
4271.94950	0.03172
4270.02085	0.03339
4268.09221	0.03590
4266.16356	0.03783
4264.23492	0.03856
4262.30627	0.03840
4260.37763	0.03836
4258.44898	0.03988
4256.52034	0.04395
4254.59169	0.05009
4252.66305	0.05636
4250.73440	0.06034
4248.80576	0.06031
4246.87711	0.05582
4244.94846	0.04800
4243.01982	0.03927
4241.09117	0.03236
4239.16253	0.02897
4237.23388	0.02909
4235.30524	0.03165
4233.37659	0.03547
4231.44795	0.03965
4229.51930	0.04352
4227.59066	0.04663
4225.66201	0.04890
4223.73337	0.05022
4221.80472	0.05029
4219.87607	0.04915
4217.94743	0.04745
4216.01878	0.04562
4214.09014	0.04327
4212.16149	0.03974
4210.23285	0.03512
4208.30420	0.03058
4206.37556	0.02786
4204.44691	0.02859
4202.51827	0.03327
4200.58962	0.04054
4198.66098	0.04764
4196.73233	0.05180
4194.80368	0.05159
4192.87504	0.04735
4190.94639	0.04090
4189.01775	0.03471
4187.08910	0.03074
4185.16046	0.02980
4183.23181	0.03163
4181.30317	0.03537
4179.37452	0.03979
4177.44588	0.04365
4175.51723	0.04630
4173.58859	0.04803
4171.65994	0.04945
4169.73130	0.05070
4167.80265	0.05143
4165.87400	0.05124
4163.94536	0.04972
4162.01671	0.04670
4160.08807	0.04260
4158.15942	0.03860
4156.23078	0.03599
4154.30213	0.03533
4152.37349	0.03631
4150.44484	0.03809
4148.51620	0.03963
4146.58755	0.03992
4144.65891	0.03842
4142.73026	0.03556
4140.80161	0.03253
4138.87297	0.03043
4136.94432	0.02966
4135.01568	0.03000
4133.08703	0.03094
4131.15839	0.03178
4129.22974	0.03187
4127.30110	0.03107
4125.37245	0.02986
4123.44381	0.02890
4121.51516	0.02880
4119.58652	0.03007
4117.65787	0.03285
4115.72922	0.03654
4113.80058	0.03997
4111.87193	0.04210
4109.94329	0.04254
4108.01464	0.04146
4106.08600	0.03955
4104.15735	0.03788
4102.22871	0.03727
4100.30006	0.03787
4098.37142	0.03939
4096.44277	0.04158
4094.51413	0.04410
4092.58548	0.04627
4090.65683	0.04753
4088.72819	0.04781
4086.79954	0.04729
4084.87090	0.04594
4082.94225	0.04382
4081.01361	0.04150
4079.08496	0.03951
4077.15632	0.03775
4075.22767	0.03595
4073.29903	0.03441
4071.37038	0.03356
4069.44174	0.03328
4067.51309	0.03322
4065.58444	0.03344
4063.65580	0.03399
4061.72715	0.03469
4059.79851	0.03546
4057.86986	0.03672
4055.94122	0.03898
4054.01257	0.04208
4052.08393	0.04506
4050.15528	0.04677
4048.22664	0.04643
4046.29799	0.04393
4044.36935	0.03982
4042.44070	0.03523
4040.51206	0.03141
4038.58341	0.02905
4036.65476	0.02810
4034.72612	0.02838
4032.79747	0.03003
4030.86883	0.03317
4028.94018	0.03737
4027.01154	0.04152
4025.08289	0.04417
4023.15425	0.04416
4021.22560	0.04122
4019.29696	0.03653
4017.36831	0.03203
4015.43967	0.02945
4013.51102	0.02950
4011.58237	0.03159
4009.65373	0.03441
4007.72508	0.03673
4005.79644	0.03780
4003.86779	0.03726
4001.93915	0.03505
4000.01050	0.03158
3998.08186	0.02770
3996.15321	0.02442
3994.22457	0.02270
3992.29592	0.02303
3990.36728	0.02513
3988.43863	0.02800
3986.50998	0.03052
3984.58134	0.03211
3982.65269	0.03296
3980.72405	0.03373
3978.79540	0.03502
3976.86676	0.03686
3974.93811	0.03867
3973.00947	0.03963
3971.08082	0.03921
3969.15218	0.03752
3967.22353	0.03525
3965.29489	0.03340
3963.36624	0.03283
3961.43759	0.03393
3959.50895	0.03655
3957.58030	0.04012
3955.65166	0.04389
3953.72301	0.04707
3951.79437	0.04917
3949.86572	0.05001
3947.93708	0.04981
3946.00843	0.04902
3944.07979	0.04812
3942.15114	0.04739
3940.22250	0.04688
3938.29385	0.04656
3936.36521	0.04643
3934.43656	0.04660
3932.50791	0.04723
3930.57927	0.04835
3928.65062	0.04973
3926.72198	0.05095
3924.79333	0.05157
3922.86469	0.05125
3920.93604	0.04985
3919.00740	0.04756
3917.07875	0.04485
3915.15011	0.04247
3913.22146	0.04124
3911.29282	0.04185
3909.36417	0.04447
3907.43552	0.04852
3905.50688	0.05274
3903.57823	0.05566
3901.64959	0.05614
3899.72094	0.05397
3897.79230	0.05000
3895.86365	0.04584
3893.93501	0.04318
3892.00636	0.04305
3890.07772	0.04541
3888.14907	0.04920
3886.22043	0.05291
3884.29178	0.05523
3882.36313	0.05571
3880.43449	0.05478
3878.50584	0.05344
3876.57720	0.05273
3874.64855	0.05326
3872.71991	0.05492
3870.79126	0.05694
3868.86262	0.05834
3866.93397	0.05849
3865.00533	0.05743
3863.07668	0.05584
3861.14804	0.05460
3859.21939	0.05435
3857.29074	0.05496
3855.36210	0.05546
3853.43345	0.05447
3851.50481	0.05119
3849.57616	0.04600
3847.64752	0.04041
3845.71887	0.03632
3843.79023	0.03511
3841.86158	0.03702
3839.93294	0.04094
3838.00429	0.04502
3836.07565	0.04764
3834.14700	0.04830
3832.21835	0.04762
3830.28971	0.04680
3828.36106	0.04694
3826.43242	0.04848
3824.50377	0.05099
3822.57513	0.05342
3820.64648	0.05465
3818.71784	0.05410
3816.78919	0.05188
3814.86055	0.04875
3812.93190	0.04591
3811.00326	0.04456
3809.07461	0.04536
3807.14597	0.04812
3805.21732	0.05183
3803.28867	0.05500
3801.36003	0.05614
3799.43138	0.05441
3797.50274	0.04996
3795.57409	0.04375
3793.64545	0.03705
3791.71680	0.03091
3789.78816	0.02593
3787.85951	0.02223
3785.93087	0.01980
3784.00222	0.01877
3782.07358	0.01947
3780.14493	0.02224
3778.21628	0.02706
3776.28764	0.03337
3774.35899	0.04003
3772.43035	0.04569
3770.50170	0.04929
3768.57306	0.05045
3766.64441	0.04960
3764.71577	0.04777
3762.78712	0.04625
3760.85848	0.04602
3758.92983	0.04754
3757.00119	0.05074
3755.07254	0.05523
3753.14389	0.06032
3751.21525	0.06512
3749.28660	0.06869
3747.35796	0.07031
3745.42931	0.06968
3743.50067	0.06711
3741.57202	0.06352
3739.64338	0.06020
3737.71473	0.05816
3735.78609	0.05774
3733.85744	0.05843
3731.92880	0.05922
3730.00015	0.05907
3728.07150	0.05740
3726.14286	0.05442
3724.21421	0.05117
3722.28557	0.04903
3720.35692	0.04902
3718.42828	0.05129
3716.49963	0.05503
3714.57099	0.05873
3712.64234	0.06083
3710.71370	0.06036
3708.78505	0.05741
3706.85641	0.05302
3704.92776	0.04868
3702.99911	0.04575
3701.07047	0.04522
3699.14182	0.04752
3697.21318	0.05250
3695.28453	0.05949
3693.35589	0.06749
3691.42724	0.07542
3689.49860	0.08236
3687.56995	0.08782
3685.64131	0.09198
3683.71266	0.09551
3681.78402	0.09926
3679.85537	0.10380
3677.92673	0.10926
3675.99808	0.11531
3674.06943	0.12133
3672.14079	0.12666
3670.21214	0.13089
3668.28350	0.13412
3666.35485	0.13707
3664.42621	0.14098
3662.49756	0.14717
3660.56892	0.15655
3658.64027	0.16922
3656.71163	0.18423
3654.78298	0.19989
3652.85434	0.21442
3650.92569	0.22669
3648.99704	0.23639
3647.06840	0.24396
3645.13975	0.25031
3643.21111	0.25656
3641.28246	0.26381
3639.35382	0.27310
3637.42517	0.28517
3635.49653	0.30034
3633.56788	0.31829
3631.63924	0.33807
3629.71059	0.35837
3627.78195	0.37795
3625.85330	0.39603
3623.92465	0.41240
3621.99601	0.42714
3620.06736	0.44043
3618.13872	0.45259
3616.21007	0.46412
3614.28143	0.47569
3612.35278	0.48806
3610.42414	0.50190
3608.49549	0.51748
3606.56685	0.53454
3604.63820	0.55248
3602.70956	0.57059
3600.78091	0.58841
3598.85226	0.60587
3596.92362	0.62307
3594.99497	0.64003
3593.06633	0.65641
3591.13768	0.67170
3589.20904	0.68566
3587.28039	0.69865
3585.35175	0.71169
3583.42310	0.72613
3581.49446	0.74302
3579.56581	0.76243
3577.63717	0.78343
3575.70852	0.80457
3573.77988	0.82453
3571.85123	0.84257
3569.92258	0.85870
3567.99394	0.87346
3566.06529	0.88748
3564.13665	0.90126
3562.20800	0.91514
3560.27936	0.92947
3558.35071	0.94455
3556.42207	0.96064
3554.49342	0.97795
3552.56478	0.99658
3550.63613	1.01640
3548.70749	1.03694
3546.77884	1.05755
3544.85019	1.07756
3542.92155	1.09654
3540.99290	1.11445
3539.06426	1.13172
3537.13561	1.14897
3535.20697	1.16665
3533.27832	1.18475
3531.34968	1.20282
3529.42103	1.22016
3527.49239	1.23621
3525.56374	1.25081
3523.63510	1.26428
3521.70645	1.27727
3519.77780	1.29042
3517.84916	1.30419
3515.92051	1.31881
3513.99187	1.33433
3512.06322	1.35060
3510.13458	1.36739
3508.20593	1.38438
3506.27729	1.40126
3504.34864	1.41760
3502.42000	1.43301
3500.49135	1.44718
3498.56271	1.46003
3496.63406	1.47176
3494.70541	1.48279
3492.77677	1.49386
3490.84812	1.50586
3488.91948	1.51947
3486.99083	1.53488
3485.06219	1.55161
3483.13354	1.56865
3481.20490	1.58487
3479.27625	1.59948
3477.34761	1.61233
3475.41896	1.62391
3473.49032	1.63500
3471.56167	1.64631
3469.63302	1.65826
3467.70438	1.67092
3465.77573	1.68409
3463.84709	1.69753
3461.91844	1.71093
3459.98980	1.72398
3458.06115	1.73641
3456.13251	1.74805
3454.20386	1.75887
3452.27522	1.76902
3450.34657	1.77869
3448.41793	1.78797
3446.48928	1.79678
3444.56064	1.80500
3442.63199	1.81265
3440.70334	1.82013
3438.77470	1.82808
3436.84605	1.83718
3434.91741	1.84783
3432.98876	1.85978
3431.06012	1.87210
3429.13147	1.88347
3427.20283	1.89274
3425.27418	1.89946
3423.34554	1.90392
3421.41689	1.90708
3419.48825	1.91021
3417.55960	1.91437
3415.63095	1.92004
3413.70231	1.92687
3411.77366	1.93408
3409.84502	1.94086
3407.91637	1.94672
3405.98773	1.95167
3404.05908	1.95619
3402.13044	1.96089
3400.20179	1.96610
3398.27315	1.97160
3396.34450	1.97682
3394.41586	1.98119
3392.48721	1.98445
3390.55856	1.98671
3388.62992	1.98837
3386.70127	1.98992
3384.77263	1.99170
3382.84398	1.99376
3380.91534	1.99593
3378.98669	1.99788
3377.05805	1.99931
3375.12940	2.00000
3373.20076	1.99986
3371.27211	1.99897
3369.34347	1.99760
3367.41482	1.99619
3365.48617	1.99507
3363.55753	1.99446
3361.62888	1.99442
3359.70024	1.99486
3357.77159	1.99550
3355.84295	1.99599
3353.91430	1.99607
3351.98566	1.99559
3350.05701	1.99445
3348.12837	1.99257
3346.19972	1.98999
3344.27108	1.98685
3342.34243	1.98338
3340.41378	1.97992
3338.48514	1.97691
3336.55649	1.97470
3334.62785	1.97332
3332.69920	1.97244
3330.77056	1.97149
3328.84191	1.96993
3326.91327	1.96741
3324.98462	1.96394
3323.05598	1.95995
3321.12733	1.95611
3319.19869	1.95311
3317.27004	1.95136
3315.34140	1.95093
3313.41275	1.95158
3311.48410	1.95278
3309.55546	1.95380
3307.62681	1.95400
3305.69817	1.95307
3303.76952	1.95108
3301.84088	1.94833
3299.91223	1.94516
3297.98359	1.94185
3296.05494	1.93848
3294.12630	1.93497
3292.19765	1.93118
3290.26901	1.92716
3288.34036	1.92312
3286.41171	1.91936
3284.48307	1.91606
3282.55442	1.91319
3280.62578	1.91057
3278.69713	1.90795
3276.76849	1.90508
3274.83984	1.90183
3272.91120	1.89831
3270.98255	1.89474
3269.05391	1.89129
3267.12526	1.88801
3265.19662	1.88481
3263.26797	1.88142
3261.33932	1.87743
3259.41068	1.87246
3257.48203	1.86637
3255.55339	1.85933
3253.62474	1.85166
3251.69610	1.84373
3249.76745	1.83579
3247.83881	1.82793
3245.91016	1.82011
3243.98152	1.81231
3242.05287	1.80462
3240.12423	1.79726
3238.19558	1.79038
3236.26693	1.78397
3234.33829	1.77793
3232.40964	1.77215
3230.48100	1.76663
3228.55235	1.76134
3226.62371	1.75621
3224.69506	1.75108
3222.76642	1.74570
3220.83777	1.73974
3218.90913	1.73295
3216.98048	1.72536
3215.05184	1.71726
3213.12319	1.70901
3211.19455	1.70090
3209.26590	1.69305
3207.33725	1.68538
3205.40861	1.67760
3203.47996	1.66944
3201.55132	1.66086
3199.62267	1.65217
3197.69403	1.64389
3195.76538	1.63646
3193.83674	1.63001
3191.90809	1.62426
3189.97945	1.61859
3188.05080	1.61231
3186.12216	1.60490
3184.19351	1.59619
3182.26486	1.58619
3180.33622	1.57502
3178.40757	1.56287
3176.47893	1.55015
3174.55028	1.53750
3172.62164	1.52573
3170.69299	1.51563
3168.76435	1.50762
3166.83570	1.50140
3164.90706	1.49606
3162.97841	1.49048
3161.04977	1.48375
3159.12112	1.47548
3157.19247	1.46590
3155.26383	1.45566
3153.33518	1.44551
3151.40654	1.43601
3149.47789	1.42738
3147.54925	1.41957
3145.62060	1.41235
3143.69196	1.40543
3141.76331	1.39851
3139.83467	1.39142
3137.90602	1.38405
3135.97738	1.37630
3134.04873	1.36806
3132.12008	1.35923
3130.19144	1.34982
3128.26279	1.34001
3126.33415	1.33018
3124.40550	1.32081
3122.47686	1.31239
3120.54821	1.30524
3118.61957	1.29936
3116.69092	1.29439
3114.76228	1.28966
3112.83363	1.28444
3110.90499	1.27815
3108.97634	1.27064
3107.04769	1.26220
3105.11905	1.25354
3103.19040	1.24546
3101.26176	1.23853
3099.33311	1.23281
3097.40447	1.22789
3095.47582	1.22309
3093.54718	1.21780
3091.61853	1.21165
3089.68989	1.20467
3087.76124	1.19720
3085.83260	1.18963
3083.90395	1.18219
3081.97531	1.17493
3080.04666	1.16790
3078.11801	1.16122
3076.18937	1.15502
3074.26072	1.14941
3072.33208	1.14434
3070.40343	1.13947
3068.47479	1.13433
3066.54614	1.12852
3064.61750	1.12192
3062.68885	1.11472
3060.76021	1.10727
3058.83156	1.09990
3056.90292	1.09269
3054.97427	1.08547
3053.04562	1.07798
3051.11698	1.07001
3049.18833	1.06157
3047.25969	1.05294
3045.33104	1.04457
3043.40240	1.03684
3041.47375	1.02990
3039.54511	1.02359
3037.61646	1.01747
3035.68782	1.01108
3033.75917	1.00412
3031.83053	0.99655
3029.90188	0.98863
3027.97323	0.98080
3026.04459	0.97358
3024.11594	0.96739
3022.18730	0.96244
3020.25865	0.95864
3018.33001	0.95557
3016.40136	0.95263
3014.47272	0.94914
3012.54407	0.94457
3010.61543	0.93874
3008.68678	0.93192
3006.75814	0.92489
3004.82949	0.91861
3002.90084	0.91392
3000.97220	0.91112
2999.04355	0.90995
2997.11491	0.90983
2995.18626	0.91005
2993.25762	0.91014
2991.32897	0.91005
2989.40033	0.91005
2987.47168	0.91027
2985.54304	0.91056
2983.61439	0.91085
2981.68575	0.91147
2979.75710	0.91306
2977.82845	0.91620
2975.89981	0.92116
2973.97116	0.92768
2972.04252	0.93500
2970.11387	0.94209
2968.18523	0.94818
2966.25658	0.95293
2964.32794	0.95636
2962.39929	0.95857
2960.47065	0.95962
2958.54200	0.95976
2956.61336	0.95941
2954.68471	0.95906
2952.75607	0.95905
2950.82742	0.95946
2948.89877	0.96016
2946.97013	0.96097
2945.04148	0.96210
2943.11284	0.96412
2941.18419	0.96764
2939.25555	0.97302
2937.32690	0.98015
2935.39826	0.98831
2933.46961	0.99639
2931.54097	1.00333
2929.61232	1.00853
2927.68368	1.01172
2925.75503	1.01266
2923.82638	1.01081
2921.89774	1.00537
2919.96909	0.99543
2918.04045	0.98052
2916.11180	0.96112
2914.18316	0.93881
2912.25451	0.91589
2910.32587	0.89463
2908.39722	0.87655
2906.46858	0.86207
2904.53993	0.85064
2902.61129	0.84116
2900.68264	0.83257
2898.75399	0.82413
2896.82535	0.81564
2894.89670	0.80723
2892.96806	0.79923
2891.03941	0.79205
2889.11077	0.78597
2887.18212	0.78103
2885.25348	0.77706
2883.32483	0.77376
2881.39619	0.77089
2879.46754	0.76821
2877.53890	0.76551
2875.61025	0.76259
2873.68160	0.75918
2871.75296	0.75500
2869.82431	0.75004
2867.89567	0.74469
2865.96702	0.73986
2864.03838	0.73682
2862.10973	0.73673
2860.18109	0.73980
2858.25244	0.74480
2856.32380	0.74943
2854.39515	0.75092
2852.46651	0.74700
2850.53786	0.73681
2848.60922	0.72145
2846.68057	0.70332
2844.75192	0.68488
2842.82328	0.66798
2840.89463	0.65358
2838.96599	0.64182
2837.03734	0.63218
2835.10870	0.62401
2833.18005	0.61678
2831.25141	0.61004
2829.32276	0.60344
2827.39412	0.59697
2825.46547	0.59098
2823.53683	0.58580
2821.60818	0.58143
2819.67953	0.57751
2817.75089	0.57336
2815.82224	0.56842
2813.89360	0.56268
2811.96495	0.55665
2810.03631	0.55093
2808.10766	0.54583
2806.17902	0.54145
2804.25037	0.53757
2802.32173	0.53380
2800.39308	0.52999
2798.46444	0.52638
2796.53579	0.52315
2794.60714	0.52011
2792.67850	0.51701
2790.74985	0.51378
2788.82121	0.51040
2786.89256	0.50693
2784.96392	0.50376
2783.03527	0.50134
2781.10663	0.49970
2779.17798	0.49843
2777.24934	0.49706
2775.32069	0.49521
2773.39205	0.49254
2771.46340	0.48914
2769.53475	0.48559
2767.60611	0.48249
2765.67746	0.47995
2763.74882	0.47775
2761.82017	0.47555
2759.89153	0.47298
2757.96288	0.46968
2756.03424	0.46576
2754.10559	0.46178
2752.17695	0.45828
2750.24830	0.45552
2748.31966	0.45355
2746.39101	0.45219
2744.46236	0.45097
2742.53372	0.44932
2740.60507	0.44691
2738.67643	0.44371
2736.74778	0.43986
2734.81914	0.43580
2732.89049	0.43229
2730.96185	0.42997
2729.03320	0.42911
2727.10456	0.42941
2725.17591	0.43018
2723.24727	0.43054
2721.31862	0.42963
2719.38998	0.42693
2717.46133	0.42264
2715.53268	0.41751
2713.60404	0.41244
2711.67539	0.40801
2709.74675	0.40457
2707.81810	0.40229
2705.88946	0.40093
2703.96081	0.39993
2702.03217	0.39878
2700.10352	0.39728
2698.17488	0.39539
2696.24623	0.39314
2694.31759	0.39080
2692.38894	0.38875
2690.46029	0.38725
2688.53165	0.38621
2686.60300	0.38532
2684.67436	0.38430
2682.74571	0.38301
2680.81707	0.38141
2678.88842	0.37952
2676.95978	0.37746
2675.03113	0.37529
2673.10249	0.37280
2671.17384	0.36970
2669.24520	0.36604
2667.31655	0.36225
2665.38790	0.35880
2663.45926	0.35596
2661.53061	0.35396
2659.60197	0.35281
2657.67332	0.35210
2655.74468	0.35123
2653.81603	0.34991
2651.88739	0.34822
2649.95874	0.34631
2648.03010	0.34429
2646.10145	0.34220
2644.17281	0.33998
2642.24416	0.33745
2640.31551	0.33458
2638.38687	0.33150
2636.45822	0.32851
2634.52958	0.32596
2632.60093	0.32411
2630.67229	0.32282
2628.74364	0.32158
2626.81500	0.31994
2624.88635	0.31777
2622.95771	0.31518
2621.02906	0.31248
2619.10042	0.31017
2617.17177	0.30869
2615.24312	0.30812
2613.31448	0.30800
2611.38583	0.30771
2609.45719	0.30668
2607.52854	0.30454
2605.59990	0.30115
2603.67125	0.29675
2601.74261	0.29185
2599.81396	0.28704
2597.88532	0.28296
2595.95667	0.28020
2594.02803	0.27902
2592.09938	0.27915
2590.17074	0.27989
2588.24209	0.28057
2586.31344	0.28066
2584.38480	0.27961
2582.45615	0.27718
2580.52751	0.27386
2578.59886	0.27077
2576.67022	0.26874
2574.74157	0.26793
2572.81293	0.26819
2570.88428	0.26907
2568.95564	0.26972
2567.02699	0.26922
2565.09835	0.26751
2563.16970	0.26548
2561.24105	0.26404
2559.31241	0.26362
2557.38376	0.26443
2555.45512	0.26647
2553.52647	0.26917
2551.59783	0.27136
2549.66918	0.27193
2547.74054	0.27055
2545.81189	0.26784
2543.88325	0.26489
2541.95460	0.26286
2540.02596	0.26244
2538.09731	0.26340
2536.16866	0.26462
2534.24002	0.26495
2532.31137	0.26420
2530.38273	0.26315
2528.45408	0.26261
2526.52544	0.26271
2524.59679	0.26305
2522.66815	0.26315
2520.73950	0.26259
2518.81086	0.26131
2516.88221	0.26009
2514.95357	0.26037
2513.02492	0.26300
2511.09627	0.26756
2509.16763	0.27291
2507.23898	0.27788
2505.31034	0.28114
2503.38169	0.28156
2501.45305	0.27908
2499.52440	0.27487
2497.59576	0.27020
2495.66711	0.26594
2493.73847	0.26278
2491.80982	0.26103
2489.88118	0.26029
2487.95253	0.25968
2486.02389	0.25844
2484.09524	0.25602
2482.16659	0.25227
2480.23795	0.24798
2478.30930	0.24488
2476.38066	0.24453
2474.45201	0.24733
2472.52337	0.25226
2470.59472	0.25715
2468.66608	0.25968
2466.73743	0.25873
2464.80879	0.25518
2462.88014	0.25138
2460.95150	0.24957
2459.02285	0.25060
2457.09420	0.25358
2455.16556	0.25663
2453.23691	0.25809
2451.30827	0.25748
2449.37962	0.25565
2447.45098	0.25400
2445.52233	0.25344
2443.59369	0.25384
2441.66504	0.25451
2439.73640	0.25480
2437.80775	0.25450
2435.87911	0.25381
2433.95046	0.25322
2432.02181	0.25318
2430.09317	0.25370
2428.16452	0.25437
2426.23588	0.25490
2424.30723	0.25518
2422.37859	0.25508
2420.44994	0.25442
2418.52130	0.25331
2416.59265	0.25194
2414.66401	0.25029
2412.73536	0.24817
2410.80672	0.24547
2408.87807	0.24222
2406.94942	0.23860
2405.02078	0.23523
2403.09213	0.23312
2401.16349	0.23300
2399.23484	0.23478
2397.30620	0.23772
2395.37755	0.24071
2393.44891	0.24269
2391.52026	0.24308
2389.59162	0.24203
2387.66297	0.24030
2385.73433	0.23883
2383.80568	0.23839
2381.87703	0.23925
2379.94839	0.24105
2378.01974	0.24302
2376.09110	0.24426
2374.16245	0.24390
2372.23381	0.24127
2370.30516	0.23615
2368.37652	0.22874
2366.44787	0.21967
2364.51923	0.21024
2362.59058	0.20250
2360.66194	0.19856
2358.73329	0.19972
2356.80465	0.20580
2354.87600	0.21490
2352.94735	0.22386
2351.01871	0.22954
2349.09006	0.23029
2347.16142	0.22642
2345.23277	0.21961
2343.30413	0.21215
2341.37548	0.20607
2339.44684	0.20256
2337.51819	0.20184
2335.58955	0.20355
2333.66090	0.20708
2331.73226	0.21175
2329.80361	0.21677
2327.87496	0.22143
2325.94632	0.22528
2324.01767	0.22812
2322.08903	0.23003
2320.16038	0.23114
2318.23174	0.23148
2316.30309	0.23098
2314.37445	0.22962
2312.44580	0.22753
2310.51716	0.22492
2308.58851	0.22206
2306.65987	0.21929
2304.73122	0.21700
2302.80257	0.21545
2300.87393	0.21466
2298.94528	0.21442
2297.01664	0.21425
2295.08799	0.21345
2293.15935	0.21128
2291.23070	0.20729
2289.30206	0.20165
2287.37341	0.19507
2285.44477	0.18854
2283.51612	0.18318
2281.58748	0.17990
2279.65883	0.17910
2277.73018	0.18043
2275.80154	0.18295
2273.87289	0.18546
2271.94425	0.18690
2270.01560	0.18662
2268.08696	0.18459
2266.15831	0.18149
2264.22967	0.17852
2262.30102	0.17722
2260.37238	0.17927
2258.44373	0.18569
2256.51509	0.19586
2254.58644	0.20679
2252.65779	0.21400
2250.72915	0.21372
2248.80050	0.20476
2246.87186	0.18894
2244.94321	0.17039
2243.01457	0.15406
2241.08592	0.14385
2239.15728	0.14068
2237.22863	0.14238
2235.29999	0.14578
2233.37134	0.14861
2231.44270	0.14956
2229.51405	0.14816
2227.58541	0.14548
2225.65676	0.14396
2223.72811	0.14532
2221.79947	0.14880
2219.87082	0.15213
2217.94218	0.15309
2216.01353	0.14961
2214.08489	0.13995
2212.15624	0.12379
2210.22760	0.10276
2208.29895	0.08008
2206.37031	0.06039
2204.44166	0.04910
2202.51302	0.05038
2200.58437	0.06467
2198.65572	0.08789
2196.72708	0.11301
2194.79843	0.13267
2192.86979	0.14192
2190.94114	0.13999
2189.01250	0.13019
2187.08385	0.11763
2185.15521	0.10685
2183.22656	0.10082
2181.29792	0.10072
2179.36927	0.10508
2177.44063	0.10852
2175.51198	0.10413
2173.58333	0.08952
2171.65469	0.06829
2169.72604	0.04601
2167.79740	0.02754
2165.86875	0.01685
2163.94011	0.01502
2162.01146	0.01781
2160.08282	0.01894
2158.15417	0.01671
2156.22553	0.01415
2154.29688	0.01372
2152.36824	0.01679
2150.43959	0.02615
2148.51094	0.04427
2146.58230	0.06956
2144.65365	0.09636
2142.72501	0.11822
2140.79636	0.13032
2138.86772	0.13090
2136.93907	0.12276
2135.01043	0.11247
2133.08178	0.10628
2131.15314	0.10646
2129.22449	0.11061
2127.29585	0.11384
2125.36720	0.11254
2123.43856	0.10705
2121.50991	0.10100
2119.58126	0.09825
2117.65262	0.10030
2115.72397	0.10608
2113.79533	0.11291
2111.86668	0.11781
2109.93804	0.11906
2108.00939	0.11692
2106.08075	0.11284
2104.15210	0.10828
2102.22346	0.10436
2100.29481	0.10235
2098.36617	0.10355
2096.43752	0.10837
2094.50887	0.11633
2092.58023	0.12636
2090.65158	0.13697
2088.72294	0.14664
2086.79429	0.15415
2084.86565	0.15863
2082.93700	0.15931
2081.00836	0.15573
2079.07971	0.14874
2077.15107	0.14057
2075.22242	0.13379
2073.29378	0.12984
2071.36513	0.12828
2069.43648	0.12681
2067.50784	0.12247
2065.57919	0.11354
2063.65055	0.10082
2061.72190	0.08721
2059.79326	0.07599
2057.86461	0.06918
2055.93597	0.06716
2054.00732	0.06901
2052.07868	0.07302
2050.15003	0.07679
2048.22139	0.07746
2046.29274	0.07250
2044.36409	0.06081
2042.43545	0.04367
2040.50680	0.02505
2038.57816	0.01077
2036.64951	0.00632
2034.72087	0.01394
2032.79222	0.03115
2030.86358	0.05216
2028.93493	0.07087
2027.00629	0.08326
2025.07764	0.08807
2023.14900	0.08683
2021.22035	0.08311
2019.29170	0.08059
2017.36306	0.08081
2015.43441	0.08257
2013.50577	0.08291
2011.57712	0.07841
2009.64848	0.06657
2007.71983	0.04782
2005.79119	0.02636
2003.86254	0.00861
2001.93390	0.00000
2000.00525	0.00253
1998.07661	0.01426
1996.14796	0.03035
1994.21932	0.04509
1992.29067	0.05416
1990.36202	0.05585
1988.43338	0.05100
1986.50473	0.04232
1984.57609	0.03314
1982.64744	0.02612
1980.71880	0.02196
1978.79015	0.01962
1976.86151	0.01806
1974.93286	0.01707
1973.00422	0.01849
1971.07557	0.02545
1969.14693	0.04038
1967.21828	0.06280
1965.28963	0.08855
1963.36099	0.11155
1961.43234	0.12713
1959.50370	0.13451
1957.57505	0.13630
1955.64641	0.13587
1953.71776	0.13487
1951.78912	0.13264
1949.86047	0.12759
1947.93183	0.11933
1946.00318	0.11007
1944.07454	0.10391
1942.14589	0.10424
1940.21724	0.11114
1938.28860	0.12097
1936.35995	0.12874
1934.43131	0.13105
1932.50266	0.12777
1930.57402	0.12187
1928.64537	0.11760
1926.71673	0.11812
1924.78808	0.12367
1922.85944	0.13171
1920.93079	0.13872
1919.00215	0.14212
1917.07350	0.14109
1915.14485	0.13646
1913.21621	0.13004
1911.28756	0.12376
1909.35892	0.11900
1907.43027	0.11638
1905.50163	0.11613
1903.57298	0.11829
1901.64434	0.12266
1899.71569	0.12842
1897.78705	0.13432
1895.85840	0.13902
1893.92976	0.14150
1892.00111	0.14117
1890.07246	0.13811
1888.14382	0.13314
1886.21517	0.12751
1884.28653	0.12237
1882.35788	0.11846
1880.42924	0.11608
1878.50059	0.11503
1876.57195	0.11474
1874.64330	0.11456
1872.71466	0.11425
1870.78601	0.11404
1868.85737	0.11439
1866.92872	0.11566
1865.00008	0.11793
1863.07143	0.12082
1861.14278	0.12365
1859.21414	0.12572
1857.28549	0.12665
1855.35685	0.12651
1853.42820	0.12575
1851.49956	0.12505
1849.57091	0.12505
1847.64227	0.12612
1845.71362	0.12814
1843.78498	0.13057
1841.85633	0.13274
1839.92769	0.13417
1837.99904	0.13476
1836.07039	0.13478
1834.14175	0.13458
1832.21310	0.13432
1830.28446	0.13384
1828.35581	0.13279
1826.42717	0.13087
1824.49852	0.12816
1822.56988	0.12516
1820.64123	0.12266
1818.71259	0.12138
1816.78394	0.12167
1814.85530	0.12338
1812.92665	0.12601
1810.99800	0.12885
1809.06936	0.13129
1807.14071	0.13305
1805.21207	0.13428
1803.28342	0.13540
1801.35478	0.13685
1799.42613	0.13886
1797.49749	0.14136
1795.56884	0.14409
1793.64020	0.14671
1791.71155	0.14897
1789.78291	0.15082
1787.85426	0.15237
1785.92561	0.15388
1783.99697	0.15565
1782.06832	0.15797
1780.13968	0.16107
1778.21103	0.16509
1776.28239	0.16989
1774.35374	0.17498
1772.42510	0.17969
1770.49645	0.18341
1768.56781	0.18592
1766.63916	0.18753
1764.71052	0.18906
1762.78187	0.19159
1760.85322	0.19601
1758.92458	0.20264
1756.99593	0.21115
1755.06729	0.22068
1753.13864	0.23035
1751.21000	0.23962
1749.28135	0.24854
1747.35271	0.25780
1745.42406	0.26832
1743.49542	0.28066
1741.56677	0.29455
1739.63813	0.30879
1737.70948	0.32175
1735.78084	0.33197
1733.85219	0.33883
1731.92354	0.34298
1729.99490	0.34623
1728.06625	0.35087
1726.13761	0.35872
1724.20896	0.37040
1722.28032	0.38511
1720.35167	0.40105
1718.42303	0.41611
1716.49438	0.42878
1714.56574	0.43888
1712.63709	0.44776
1710.70845	0.45770
1708.77980	0.47104
1706.85115	0.48929
1704.92251	0.51252
1702.99386	0.53935
1701.06522	0.56739
1699.13657	0.59441
1697.20793	0.61940
1695.27928	0.64305
1693.35064	0.66729
1691.42199	0.69419
1689.49335	0.72485
1687.56470	0.75882
1685.63606	0.79434
1683.70741	0.82930
1681.77876	0.86238
1679.85012	0.89355
1677.92147	0.92375
1675.99283	0.95401
1674.06418	0.98489
1672.13554	1.01625
1670.20689	1.04743
1668.27825	1.07781
1666.34960	1.10729
1664.42096	1.13648
1662.49231	1.16611
1660.56367	1.19638
1658.63502	1.22656
1656.70637	1.25493
1654.77773	1.27918
1652.84908	1.29719
1650.92044	1.30812
1648.99179	1.31287
1647.06315	1.31368
1645.13450	1.31311
1643.20586	1.31311
1641.27721	1.31440
1639.34857	1.31636
1637.41992	1.31742
1635.49128	1.31602
1633.56263	1.31132
1631.63399	1.30347
1629.70534	1.29337
1627.77669	1.28231
1625.84805	1.27151
1623.91940	1.26171
1621.99076	1.25305
1620.06211	1.24528
1618.13347	1.23793
1616.20482	1.23067
1614.27618	1.22342
1612.34753	1.21637
1610.41889	1.20976
1608.49024	1.20367
1606.56160	1.19798
1604.63295	1.19241
1602.70430	1.18656
1600.77566	1.17996
1598.84701	1.17217
1596.91837	1.16283
1594.98972	1.15166
1593.06108	1.13855
1591.13243	1.12367
1589.20379	1.10757
1587.27514	1.09112
1585.34650	1.07521
1583.41785	1.06046
1581.48921	1.04704
1579.56056	1.03463
1577.63191	1.02251
1575.70327	1.00989
1573.77462	0.99645
1571.84598	0.98270
1569.91733	0.96986
1567.98869	0.95927
1566.06004	0.95166
1564.13140	0.94654
1562.20275	0.94208
1560.27411	0.93564
1558.34546	0.92489
1556.41682	0.90895
1554.48817	0.88889
1552.55952	0.86724
1550.63088	0.84688
1548.70223	0.82979
1546.77359	0.81621
1544.84494	0.80470
1542.91630	0.79289
1540.98765	0.77862
1539.05901	0.76093
1537.13036	0.74053
1535.20172	0.71942
1533.27307	0.70018
1531.34443	0.68501
1529.41578	0.67510
1527.48713	0.67024
1525.55849	0.66887
1523.62984	0.66858
1521.70120	0.66693
1519.77255	0.66226
1517.84391	0.65413
1515.91526	0.64310
1513.98662	0.63014
1512.05797	0.61598
1510.12933	0.60080
1508.20068	0.58431
1506.27204	0.56618
1504.34339	0.54663
1502.41475	0.52661
1500.48610	0.50736
1498.55745	0.48981
1496.62881	0.47430
1494.70016	0.46065
1492.77152	0.44843
1490.84287	0.43723
1488.91423	0.42699
1486.98558	0.41823
1485.05694	0.41197
1483.12829	0.40951
1481.19965	0.41204
1479.27100	0.42020
1477.34236	0.43384
1475.41371	0.45173
1473.48506	0.47185
1471.55642	0.49202
1469.62777	0.51067
1467.69913	0.52716
1465.77048	0.54150
1463.84184	0.55388
1461.91319	0.56420
1459.98455	0.57190
1458.05590	0.57602
1456.12726	0.57578
1454.19861	0.57110
1452.26997	0.56290
1450.34132	0.55271
1448.41267	0.54237
1446.48403	0.53362
1444.55538	0.52773
1442.62674	0.52527
1440.69809	0.52614
1438.76945	0.52978
1436.84080	0.53549
1434.91216	0.54282
1432.98351	0.55176
1431.05487	0.56274
1429.12622	0.57625
1427.19758	0.59243
1425.26893	0.61083
1423.34028	0.63042
1421.41164	0.64984
1419.48299	0.66789
1417.55435	0.68384
1415.62570	0.69753
1413.69706	0.70911
1411.76841	0.71882
1409.83977	0.72683
1407.91112	0.73320
1405.98248	0.73796
1404.05383	0.74111
1402.12519	0.74267
1400.19654	0.74269
1398.26789	0.74116
1396.33925	0.73805
1394.41060	0.73348
1392.48196	0.72777
1390.55331	0.72146
1388.62467	0.71514
1386.69602	0.70927
1384.76738	0.70404
1382.83873	0.69933
1380.91009	0.69476
1378.98144	0.68992
1377.05280	0.68450
1375.12415	0.67839
1373.19551	0.67163
1371.26686	0.66436
1369.33821	0.65674
1367.40957	0.64886
1365.48092	0.64086
1363.55228	0.63296
1361.62363	0.62544
1359.69499	0.61851
1357.76634	0.61220
1355.83770	0.60632
1353.90905	0.60053
1351.98041	0.59447
1350.05176	0.58788
1348.12312	0.58073
1346.19447	0.57313
1344.26582	0.56534
1342.33718	0.55762
1340.40853	0.55031
1338.47989	0.54371
1336.55124	0.53802
1334.62260	0.53325
1332.69395	0.52916
1330.76531	0.52534
1328.83666	0.52139
1326.90802	0.51699
1324.97937	0.51199
1323.05073	0.50640
1321.12208	0.50033
1319.19343	0.49392
1317.26479	0.48738
1315.33614	0.48099
1313.40750	0.47513
1311.47885	0.47016
1309.55021	0.46636
1307.62156	0.46379
1305.69292	0.46229
1303.76427	0.46157
1301.83563	0.46135
1299.90698	0.46153
1297.97834	0.46221
1296.04969	0.46358
1294.12104	0.46575
1292.19240	0.46863
1290.26375	0.47191
1288.33511	0.47521
1286.40646	0.47828
1284.47782	0.48114
1282.54917	0.48402
1280.62053	0.48728
1278.69188	0.49117
1276.76324	0.49566
1274.83459	0.50046
1272.90595	0.50508
1270.97730	0.50910
1269.04866	0.51229
1267.12001	0.51463
1265.19136	0.51632
1263.26272	0.51757
1261.33407	0.51850
1259.40543	0.51909
1257.47678	0.51921
1255.54814	0.51876
1253.61949	0.51778
1251.69085	0.51647
1249.76220	0.51502
1247.83356	0.51358
1245.90491	0.51212
1243.97627	0.51053
1242.04762	0.50869
1240.11897	0.50665
1238.19033	0.50465
1236.26168	0.50302
1234.33304	0.50201
1232.40439	0.50163
1230.47575	0.50163
1228.54710	0.50155
1226.61846	0.50088
1224.68981	0.49920
1222.76117	0.49634
1220.83252	0.49239
1218.90388	0.48767
1216.97523	0.48264
1215.04658	0.47782
1213.11794	0.47358
1211.18929	0.47007
1209.26065	0.46717
1207.33200	0.46462
1205.40336	0.46217
1203.47471	0.45969
1201.54607	0.45725
1199.61742	0.45524
1197.68878	0.45435
1195.76013	0.45532
1193.83149	0.45862
1191.90284	0.46452
1189.97419	0.47310
1188.04555	0.48423
1186.11690	0.49747
1184.18826	0.51242
1182.25961	0.52885
1180.33097	0.54660
1178.40232	0.56549
1176.47368	0.58551
1174.54503	0.60712
1172.61639	0.63094
1170.68774	0.65736
1168.75910	0.68619
1166.83045	0.71673
1164.90180	0.74783
1162.97316	0.77825
1161.04451	0.80714
1159.11587	0.83437
1157.18722	0.86050
1155.25858	0.88641
1153.32993	0.91268
1151.40129	0.93939
1149.47264	0.96632
1147.54400	0.99334
1145.61535	1.02070
1143.68671	1.04912
1141.75806	1.07972
1139.82942	1.11381
1137.90077	1.15218
1135.97212	1.19470
1134.04348	1.24021
1132.11483	1.28695
1130.18619	1.33303
1128.25754	1.37686
1126.32890	1.41747
1124.40025	1.45474
1122.47161	1.48913
1120.54296	1.52124
1118.61432	1.55135
1116.68567	1.57931
1114.75703	1.60479
1112.82838	1.62770
1110.89973	1.64848
1108.97109	1.66818
1107.04244	1.68816
1105.11380	1.70951
1103.18515	1.73251
1101.25651	1.75656
1099.32786	1.78071
1097.39922	1.80416
1095.47057	1.82660
1093.54193	1.84832
1091.61328	1.86978
1089.68464	1.89098
1087.75599	1.91113
1085.82734	1.92875
1083.89870	1.94210
1081.97005	1.94975
1080.04141	1.95105
1078.11276	1.94626
1076.18412	1.93624
1074.25547	1.92198
1072.32683	1.90454
1070.39818	1.88467
1068.46954	1.86256
1066.54089	1.83804
1064.61225	1.81098
1062.68360	1.78142
1060.75495	1.74950
1058.82631	1.71569
1056.89766	1.68086
1054.96902	1.64598
1053.04037	1.61172
1051.11173	1.57835
1049.18308	1.54597
1047.25444	1.51443
1045.32579	1.48357
1043.39715	1.45344
1041.46850	1.42447
1039.53986	1.39709
1037.61121	1.37142
1035.68256	1.34717
1033.75392	1.32346
1031.82527	1.29895
1029.89663	1.27255
1027.96798	1.24398
1026.03934	1.21379
1024.11069	1.18297
1022.18205	1.15276
1020.25340	1.12434
1018.32476	1.09835
1016.39611	1.07477
1014.46747	1.05337
1012.53882	1.03404
1010.61018	1.01668
1008.68153	1.00115
1006.75288	0.98749
1004.82424	0.97593
1002.89559	0.96673
1000.96695	0.96004
999.03830	0.95600
997.10966	0.95463
995.18101	0.95552
993.25237	0.95761
991.32372	0.95936
989.39508	0.95902
987.46643	0.95487
985.53779	0.94558
983.60914	0.93048
981.68049	0.90954
979.75185	0.88329
977.82320	0.85258
975.89456	0.81845
973.96591	0.78202
972.03727	0.74441
970.10862	0.70664
968.17998	0.66976
966.25133	0.63481
964.32269	0.60257
962.39404	0.57327
960.46540	0.54676
958.53675	0.52280
956.60810	0.50105
954.67946	0.48128
952.75081	0.46373
950.82217	0.44888
948.89352	0.43662
946.96488	0.42610
945.03623	0.41643
943.10759	0.40714
941.17894	0.39815
939.25030	0.38976
937.32165	0.38248
935.39301	0.37656
933.46436	0.37172
931.53571	0.36764
929.60707	0.36440
927.67842	0.36246
925.74978	0.36227
923.82113	0.36378
921.89249	0.36588
919.96384	0.36664
918.03520	0.36458
916.10655	0.35980
914.17791	0.35371
912.24926	0.34824
910.32062	0.34524
908.39197	0.34570
906.46333	0.34876
904.53468	0.35215
902.60603	0.35419
900.67739	0.35486
898.74874	0.35515
896.82010	0.35647
894.89145	0.36063
892.96281	0.36910
891.03416	0.38140
889.10552	0.39522
887.17687	0.40791
885.24823	0.41755
883.31958	0.42287
881.39094	0.42394
879.46229	0.42289
877.53364	0.42280
875.60500	0.42581
873.67635	0.43244
871.74771	0.44163
869.81906	0.45086
867.89042	0.45683
865.96177	0.45724
864.03313	0.45188
862.10448	0.44226
860.17584	0.43086
858.24719	0.42055
856.31855	0.41367
854.38990	0.41112
852.46125	0.41234
850.53261	0.41575
848.60396	0.41916
846.67532	0.42011
844.74667	0.41696
842.81803	0.40979
840.88938	0.40040
838.96074	0.39128
837.03209	0.38460
835.10345	0.38118
833.17480	0.37996
831.24616	0.37865
829.31751	0.37523
827.38886	0.36924
825.46022	0.36185
823.53157	0.35496
821.60293	0.35028
819.67428	0.34868
817.74564	0.35005
815.81699	0.35361
813.88835	0.35853
811.95970	0.36450
810.03106	0.37161
808.10241	0.37978
806.17377	0.38856
804.24512	0.39739
802.31647	0.40561
800.38783	0.41230
798.45918	0.41664
796.53054	0.41842
794.60189	0.41819
792.67325	0.41696
790.74460	0.41618
788.81596	0.41740
786.88731	0.42133
784.95867	0.42712
783.03002	0.43258
781.10138	0.43522
779.17273	0.43342
777.24409	0.42733
775.31544	0.41885
773.38679	0.41065
771.45815	0.40492
769.52950	0.40257
767.60086	0.40303
765.67221	0.40486
763.74357	0.40679
761.81492	0.40820
759.88628	0.40881
757.95763	0.40845
756.02899	0.40704
754.10034	0.40495
752.17170	0.40317
750.24305	0.40295
748.31440	0.40486
746.38576	0.40818
744.45711	0.41153
742.52847	0.41389
740.59982	0.41494
738.67118	0.41513
736.74253	0.41580
734.81389	0.41812
732.88524	0.42177
730.95660	0.42520
729.02795	0.42722
727.09931	0.42805
725.17066	0.42870
723.24201	0.43036
721.31337	0.43402
719.38472	0.43992
717.45608	0.44703
715.52743	0.45364
713.59879	0.45832
711.67014	0.46060
709.74150	0.46078
707.81285	0.45973
705.88421	0.45855
703.95556	0.45824
702.02692	0.45918
700.09827	0.46109
698.16962	0.46339
696.24098	0.46580
694.31233	0.46861
692.38369	0.47236
690.45504	0.47737
688.52640	0.48321
686.59775	0.48860
684.66911	0.49181
682.74046	0.49175
680.81182	0.48915
678.88317	0.48670
676.95453	0.48755
675.02588	0.49366
673.09723	0.50456
671.16859	0.51724
669.23994	0.52718
667.31130	0.53048
665.38265	0.52606
663.45401	0.51624
661.52536	0.50519
659.59672	0.49707
657.66807	0.49441
655.73943	0.49724
653.81078	0.50335
651.88214	0.50962
649.95349	0.51370
648.02485	0.51483
646.09620	0.51376
644.16755	0.51213
642.23891	0.51159
640.31026	0.51302
638.38162	0.51617
636.45297	0.51959
634.52433	0.52109
632.59568	0.51936
630.66704	0.51559
628.73839	0.51360
626.80975	0.51853
624.88110	0.53490
622.95246	0.56502
621.02381	0.60736
619.09516	0.65588
617.16652	0.70183
615.23787	0.73684
613.30923	0.75482
611.38058	0.75274
609.45194	0.73150
607.52329	0.69698
605.59465	0.65862
603.66600	0.62568
601.73736	0.60443
599.80871	0.59699
597.88007	0.60096
595.95142	0.61052
594.02277	0.61929
592.09413	0.62356
590.16548	0.62311
588.23684	0.61983
586.30819	0.61613
584.37955	0.61392
582.45090	0.61399
580.52226	0.61614
578.59361	0.62015
576.66497	0.62651
574.73632	0.63625
572.80768	0.65017
570.87903	0.66838
568.95038	0.68995
567.02174	0.71290
565.09309	0.73477
563.16445	0.75362
561.23580	0.76855
559.30716	0.77963
557.37851	0.78757
555.44987	0.79377
553.52122	0.80001
551.59258	0.80799
549.66393	0.81864
547.73529	0.83179
545.80664	0.84583
543.87800	0.85794
541.94935	0.86506
540.02070	0.86530
538.09206	0.85891
536.16341	0.84812
534.23477	0.83615
532.30612	0.82576
530.37748	0.81816
528.44883	0.81276
526.52019	0.80766
524.59154	0.80057
522.66290	0.78964
520.73425	0.77404
518.80561	0.75403
516.87696	0.73072
514.94831	0.70600
513.01967	0.68222
511.09102	0.66140
509.16238	0.64428
507.23373	0.62996
505.30509	0.61647
503.37644	0.60182
501.44780	0.58521
499.51915	0.56776
497.59051	0.55195
495.66186	0.54024
493.73322	0.53377
491.80457	0.53187
489.87592	0.53254
487.94728	0.53383
486.01863	0.53512
484.08999	0.53712
482.16134	0.54073
480.23270	0.54598
478.30405	0.55175
476.37541	0.55608
474.44676	0.55685
472.51812	0.55289
470.58947	0.54466
468.66083	0.53394
466.73218	0.52284
464.80353	0.51294
462.87489	0.50480
460.94624	0.49770
459.01760	0.48993
457.08895	0.47949
455.16031	0.46512
453.23166	0.44686
451.30302	0.42631
449.37437	0.40619
447.44573	0.38951
445.51708	0.37850
443.58844	0.37386
441.65979	0.37462
439.73114	0.37844
437.80250	0.38235
435.87385	0.38379
433.94521	0.38149
432.01656	0.37579
430.08792	0.36828
428.15927	0.36074
426.23063	0.35410
424.30198	0.34799
422.37334	0.34114
420.44469	0.33215
418.51605	0.32046
416.58740	0.30682
414.65876	0.29296
412.73011	0.28073
410.80146	0.27133
408.87282	0.26509
406.94417	0.26167
405.01553	0.26028
403.08688	0.25967
401.15824	0.25816
399.22959	0.25375
397.30095	0.24467
395.37230	0.23000
393.44366	0.21034
391.51501	0.18798
389.58637	0.16654
387.65772	0.14986
385.72907	0.14062
383.80043	0.13962
381.87178	0.14566
379.94314	0.15601
378.01449	0.16722
376.08585	0.17614
374.15720	0.18072
372.22856	0.18027
370.29991	0.17512
368.37127	0.16623
366.44262	0.15492
364.51398	0.14252
362.58533	0.13012
360.65668	0.11859
358.72804	0.10873
356.79939	0.10115
354.87075	0.09607
352.94210	0.09328
351.01346	0.09232
349.08481	0.09249
347.15617	0.09278
345.22752	0.09215
343.29888	0.08985
341.37023	0.08553
339.44159	0.07938
337.51294	0.07233
335.58429	0.06603
333.65565	0.06224
331.72700	0.06187
329.79836	0.06442
327.86971	0.06791
325.94107	0.06954
324.01242	0.06689
322.08378	0.05909
320.15513	0.04722
318.22649	0.03380
316.29784	0.02185
314.36920	0.01406
312.44055	0.01226
310.51190	0.01701
308.58326	0.02748
306.65461	0.04143
304.72597	0.05545
302.79732	0.06477
300.86868	0.06573
298.94003	0.05718
297.01139	0.04135
295.08274	0.02336
293.15410	0.00963
291.22545	0.00549
289.29681	0.01309
287.36816	0.03063
285.43952	0.05330
283.51087	0.07530
281.58222	0.09187
279.65358	0.10063
277.72493	0.10169
275.79629	0.09688
273.86764	0.08877
271.93900	0.07992
270.01035	0.07237
268.08171	0.06736
266.15306	0.06508
264.22442	0.06477
262.29577	0.06519
260.36713	0.06598
258.43848	0.06878
256.50983	0.07685
254.58119	0.09271
252.65254	0.11570
250.72390	0.14121
248.79525	0.16216
246.86661	0.17217
244.93796	0.16930
243.00932	0.15788
241.08067	0.14645
239.15203	0.14326
237.22338	0.15248
235.29474	0.17330
233.36609	0.20130
231.43744	0.23080
229.50880	0.25715
227.58015	0.27827
225.65151	0.29450
223.72286	0.30737
221.79422	0.31831
219.86557	0.32778
217.93693	0.33489
216.00828	0.33765
214.07964	0.33414
212.15099	0.32405
210.22235	0.30943
208.29370	0.29432
206.36505	0.28313
204.43641	0.27856
202.50776	0.28077
200.57912	0.28864
198.65047	0.30143
196.72183	0.31864
194.79318	0.33858
192.86454	0.35772
190.93589	0.37127
189.00725	0.37463
187.07860	0.36575
185.14996	0.34755
183.22131	0.32751
181.29267	0.31367
179.36402	0.31078
177.43537	0.31946
175.50673	0.33762
173.57808	0.36216
171.64944	0.39098
169.72079	0.42443
167.79215	0.46424
165.86350	0.51072
163.93486	0.56191
162.00621	0.62485
160.07757	0.68808
158.14892	0.74293
156.22028	0.78402
154.29163	0.78402
152.36298	0.78402
150.43434	0.78402
148.50569	0.78402
