4497.60101	0.05807
4495.67236	0.05807
4493.74372	0.05807
4491.81507	0.05807
4489.88643	0.05807
4487.95778	0.05878
4486.02914	0.06172
4484.10049	0.06675
4482.17185	0.07253
4480.24320	0.07725
4478.31455	0.07848
4476.38591	0.07589
4474.45726	0.07038
4472.52862	0.06374
4470.59997	0.05802
4468.67133	0.05440
4466.74268	0.05300
4464.81404	0.05362
4462.88539	0.05589
4460.95675	0.05886
4459.02810	0.06128
4457.09946	0.06244
4455.17081	0.06226
4453.24216	0.06100
4451.31352	0.05923
4449.38487	0.05791
4447.45623	0.05771
4445.52758	0.05851
4443.59894	0.05966
4441.67029	0.06056
4439.74165	0.06083
4437.81300	0.06048
4435.88436	0.06006
4433.95571	0.06047
4432.02707	0.06236
4430.09842	0.06573
4428.16978	0.06993
4426.24113	0.07373
4424.31248	0.07576
4422.38384	0.07520
4420.45519	0.07217
4418.52655	0.06770
4416.59790	0.06333
4414.66926	0.06053
4412.74061	0.06009
4410.81197	0.06157
4408.88332	0.06354
4406.95468	0.06436
4405.02603	0.06308
4403.09739	0.06006
4401.16874	0.05667
4399.24009	0.05443
4397.31145	0.05432
4395.38280	0.05638
4393.45416	0.05962
4391.52551	0.06263
4389.59687	0.06448
4387.66822	0.06515
4385.73958	0.06505
4383.81093	0.06447
4381.88229	0.06372
4379.95364	0.06309
4378.02500	0.06252
4376.09635	0.06171
4374.16770	0.06082
4372.23906	0.06050
4370.31041	0.06124
4368.38177	0.06308
4366.45312	0.06588
4364.52448	0.06929
4362.59583	0.07246
4360.66719	0.07438
4358.73854	0.07466
4356.80990	0.07350
4354.88125	0.07123
4352.95261	0.06829
4351.02396	0.06545
4349.09531	0.06336
4347.16667	0.06220
4345.23802	0.06195
4343.30938	0.06256
4341.38073	0.06358
4339.45209	0.06409
4337.52344	0.06342
4335.59480	0.06157
4333.66615	0.05897
4331.73751	0.05640
4329.80886	0.05510
4327.88022	0.05606
4325.95157	0.05901
4324.02292	0.06262
4322.09428	0.06549
4320.16563	0.06667
4318.23699	0.06583
4316.30834	0.06346
4314.37970	0.06076
4312.45105	0.05880
4310.52241	0.05793
4308.59376	0.05803
4306.66512	0.05880
4304.73647	0.05965
4302.80783	0.05987
4300.87918	0.05887
4298.95054	0.05658
4297.02189	0.05373
4295.09324	0.05173
4293.16460	0.05189
4291.23595	0.05435
4289.30731	0.05799
4287.37866	0.06116
4285.45002	0.06240
4283.52137	0.06118
4281.59273	0.05840
4279.66408	0.05591
4277.73544	0.05505
4275.80679	0.05575
4273.87815	0.05702
4271.94950	0.05803
4270.02085	0.05867
4268.09221	0.05941
4266.16356	0.06088
4264.23492	0.06339
4262.30627	0.06645
4260.37763	0.06885
4258.44898	0.06941
4256.52034	0.06793
4254.59169	0.06530
4252.66305	0.06304
4250.73440	0.06243
4248.80576	0.06394
4246.87711	0.06700
4244.94846	0.07026
4243.01982	0.07231
4241.09117	0.07245
4239.16253	0.07088
4237.23388	0.06845
4235.30524	0.06611
4233.37659	0.06432
4231.44795	0.06299
4229.51930	0.06189
4227.59066	0.06112
4225.66201	0.06114
4223.73337	0.06231
4221.80472	0.06430
4219.87607	0.06601
4217.94743	0.06621
4216.01878	0.06451
4214.09014	0.06156
4212.16149	0.05869
4210.23285	0.05737
4208.30420	0.05836
4206.37556	0.06106
4204.44691	0.06370
4202.51827	0.06460
4200.58962	0.06323
4198.66098	0.06011
4196.73233	0.05627
4194.80368	0.05289
4192.87504	0.05099
4190.94639	0.05091
4189.01775	0.05193
4187.08910	0.05296
4185.16046	0.05339
4183.23181	0.05328
4181.30317	0.05293
4179.37452	0.05254
4177.44588	0.05222
4175.51723	0.05199
4173.58859	0.05153
4171.65994	0.05046
4169.73130	0.04899
4167.80265	0.04813
4165.87400	0.04881
4163.94536	0.05110
4162.01671	0.05428
4160.08807	0.05744
4158.15942	0.05973
4156.23078	0.06054
4154.30213	0.05991
4152.37349	0.05859
4150.44484	0.05728
4148.51620	0.05614
4146.58755	0.05502
4144.65891	0.05397
4142.73026	0.05330
4140.80161	0.05331
4138.87297	0.05397
4136.94432	0.05498
4135.01568	0.05584
4133.08703	0.05602
4131.15839	0.05516
4129.22974	0.05331
4127.30110	0.05091
4125.37245	0.04851
4123.44381	0.04646
4121.51516	0.04524
4119.58652	0.04545
4117.65787	0.04731
4115.72922	0.05028
4113.80058	0.05337
4111.87193	0.05557
4109.94329	0.05602
4108.01464	0.05455
4106.08600	0.05211
4104.15735	0.05031
4102.22871	0.05023
4100.30006	0.05194
4098.37142	0.05474
4096.44277	0.05762
4094.51413	0.05940
4092.58548	0.05925
4090.65683	0.05728
4088.72819	0.05440
4086.79954	0.05150
4084.87090	0.04900
4082.94225	0.04714
4081.01361	0.04621
4079.08496	0.04622
4077.15632	0.04691
4075.22767	0.04820
4073.29903	0.05029
4071.37038	0.05304
4069.44174	0.05566
4067.51309	0.05727
4065.58444	0.05744
4063.65580	0.05608
4061.72715	0.05357
4059.79851	0.05091
4057.86986	0.04939
4055.94122	0.04956
4054.01257	0.05096
4052.08393	0.05259
4050.15528	0.05350
4048.22664	0.05303
4046.29799	0.05108
4044.36935	0.04820
4042.44070	0.04521
4040.51206	0.04274
4038.58341	0.04115
4036.65476	0.04061
4034.72612	0.04116
4032.79747	0.04270
4030.86883	0.04499
4028.94018	0.04761
4027.01154	0.05009
4025.08289	0.05203
4023.15425	0.05317
4021.22560	0.05354
4019.29696	0.05352
4017.36831	0.05361
4015.43967	0.05403
4013.51102	0.05464
4011.58237	0.05493
4009.65373	0.05441
4007.72508	0.05299
4005.79644	0.05094
4003.86779	0.04917
4001.93915	0.04856
4000.01050	0.04955
3998.08186	0.05187
3996.15321	0.05478
3994.22457	0.05746
3992.29592	0.05936
3990.36728	0.06026
3988.43863	0.06013
3986.50998	0.05896
3984.58134	0.05683
3982.65269	0.05397
3980.72405	0.05088
3978.79540	0.04822
3976.86676	0.04654
3974.93811	0.04598
3973.00947	0.04621
3971.08082	0.04664
3969.15218	0.04680
3967.22353	0.04658
3965.29489	0.04619
3963.36624	0.04595
3961.43759	0.04613
3959.50895	0.04676
3957.58030	0.04774
3955.65166	0.04889
3953.72301	0.05003
3951.79437	0.05099
3949.86572	0.05157
3947.93708	0.05166
3946.00843	0.05130
3944.07979	0.05075
3942.15114	0.05038
3940.22250	0.05051
3938.29385	0.05120
3936.36521	0.05218
3934.43656	0.05301
3932.50791	0.05328
3930.57927	0.05285
3928.65062	0.05194
3926.72198	0.05094
3924.79333	0.05027
3922.86469	0.05018
3920.93604	0.05063
3919.00740	0.05126
3917.07875	0.05163
3915.15011	0.05138
3913.22146	0.05045
3911.29282	0.04907
3909.36417	0.04764
3907.43552	0.04654
3905.50688	0.04591
3903.57823	0.04561
3901.64959	0.04530
3899.72094	0.04471
3897.79230	0.04382
3895.86365	0.04288
3893.93501	0.04229
3892.00636	0.04240
3890.07772	0.04331
3888.14907	0.04483
3886.22043	0.04652
3884.29178	0.04788
3882.36313	0.04853
3880.43449	0.04830
3878.50584	0.04729
3876.57720	0.04584
3874.64855	0.04439
3872.71991	0.04328
3870.79126	0.04272
3868.86262	0.04281
3866.93397	0.04357
3865.00533	0.04483
3863.07668	0.04634
3861.14804	0.04772
3859.21939	0.04852
3857.29074	0.04833
3855.36210	0.04703
3853.43345	0.04502
3851.50481	0.04300
3849.57616	0.04164
3847.64752	0.04130
3845.71887	0.04188
3843.79023	0.04290
3841.86158	0.04381
3839.93294	0.04430
3838.00429	0.04446
3836.07565	0.04449
3834.14700	0.04444
3832.21835	0.04405
3830.28971	0.04301
3828.36106	0.04123
3826.43242	0.03904
3824.50377	0.03716
3822.57513	0.03641
3820.64648	0.03724
3818.71784	0.03936
3816.78919	0.04187
3814.86055	0.04372
3812.93190	0.04414
3811.00326	0.04300
3809.07461	0.04083
3807.14597	0.03858
3805.21732	0.03712
3803.28867	0.03690
3801.36003	0.03784
3799.43138	0.03957
3797.50274	0.04165
3795.57409	0.04375
3793.64545	0.04566
3791.71680	0.04723
3789.78816	0.04818
3787.85951	0.04821
3785.93087	0.04717
3784.00222	0.04528
3782.07358	0.04314
3780.14493	0.04150
3778.21628	0.04092
3776.28764	0.04142
3774.35899	0.04252
3772.43035	0.04353
3770.50170	0.04396
3768.57306	0.04370
3766.64441	0.04315
3764.71577	0.04296
3762.78712	0.04364
3760.85848	0.04520
3758.92983	0.04701
3757.00119	0.04820
3755.07254	0.04794
3753.14389	0.04590
3751.21525	0.04244
3749.28660	0.03860
3747.35796	0.03560
3745.42931	0.03431
3743.50067	0.03488
3741.57202	0.03669
3739.64338	0.03879
3737.71473	0.04032
3735.78609	0.04096
3733.85744	0.04093
3731.92880	0.04085
3730.00015	0.04132
3728.07150	0.04270
3726.14286	0.04492
3724.21421	0.04760
3722.28557	0.05026
3720.35692	0.05249
3718.42828	0.05398
3716.49963	0.05465
3714.57099	0.05474
3712.64234	0.05466
3710.71370	0.05484
3708.78505	0.05549
3706.85641	0.05657
3704.92776	0.05789
3702.99911	0.05923
3701.07047	0.06047
3699.14182	0.06162
3697.21318	0.06268
3695.28453	0.06353
3693.35589	0.06404
3691.42724	0.06422
3689.49860	0.06435
3687.56995	0.06493
3685.64131	0.06644
3683.71266	0.06908
3681.78402	0.07266
3679.85537	0.07675
3677.92673	0.08099
3675.99808	0.08523
3674.06943	0.08957
3672.14079	0.09417
3670.21214	0.09908
3668.28350	0.10422
3666.35485	0.10942
3664.42621	0.11463
3662.49756	0.12007
3660.56892	0.12618
3658.64027	0.13337
3656.71163	0.14177
3654.78298	0.15112
3652.85434	0.16084
3650.92569	0.17032
3648.99704	0.17921
3647.06840	0.18759
3645.13975	0.19603
3643.21111	0.20516
3641.28246	0.21533
3639.35382	0.22646
3637.42517	0.23806
3635.49653	0.24952
3633.56788	0.26028
3631.63924	0.27005
3629.71059	0.27886
3627.78195	0.28692
3625.85330	0.29444
3623.92465	0.30168
3621.99601	0.30899
3620.06736	0.31678
3618.13872	0.32544
3616.21007	0.33521
3614.28143	0.34607
3612.35278	0.35772
3610.42414	0.36969
3608.49549	0.38154
3606.56685	0.39305
3604.63820	0.40436
3602.70956	0.41581
3600.78091	0.42778
3598.85226	0.44036
3596.92362	0.45328
3594.99497	0.46593
3593.06633	0.47767
3591.13768	0.48805
3589.20904	0.49706
3587.28039	0.50520
3585.35175	0.51334
3583.42310	0.52239
3581.49446	0.53289
3579.56581	0.54477
3577.63717	0.55743
3575.70852	0.56993
3573.77988	0.58140
3571.85123	0.59142
3569.92258	0.60026
3567.99394	0.60878
3566.06529	0.61799
3564.13665	0.62852
3562.20800	0.64043
3560.27936	0.65322
3558.35071	0.66612
3556.42207	0.67848
3554.49342	0.69016
3552.56478	0.70158
3550.63613	0.71334
3548.70749	0.72577
3546.77884	0.73867
3544.85019	0.75138
3542.92155	0.76306
3540.99290	0.77317
3539.06426	0.78179
3537.13561	0.78963
3535.20697	0.79767
3533.27832	0.80667
3531.34968	0.81687
3529.42103	0.82798
3527.49239	0.83944
3525.56374	0.85076
3523.63510	0.86172
3521.70645	0.87243
3519.77780	0.88312
3517.84916	0.89394
3515.92051	0.90476
3513.99187	0.91529
3512.06322	0.92528
3510.13458	0.93473
3508.20593	0.94393
3506.27729	0.95335
3504.34864	0.96339
3502.42000	0.97418
3500.49135	0.98542
3498.56271	0.99655
3496.63406	1.00703
3494.70541	1.01667
3492.77677	1.02561
3490.84812	1.03425
3488.91948	1.04306
3486.99083	1.05229
3485.06219	1.06187
3483.13354	1.07146
3481.20490	1.08071
3479.27625	1.08941
3477.34761	1.09759
3475.41896	1.10543
3473.49032	1.11323
3471.56167	1.12126
3469.63302	1.12959
3467.70438	1.13804
3465.77573	1.14631
3463.84709	1.15410
3461.91844	1.16133
3459.98980	1.16825
3458.06115	1.17546
3456.13251	1.18365
3454.20386	1.19325
3452.27522	1.20411
3450.34657	1.21547
3448.41793	1.22625
3446.48928	1.23545
3444.56064	1.24260
3442.63199	1.24794
3440.70334	1.25224
3438.77470	1.25641
3436.84605	1.26105
3434.91741	1.26631
3432.98876	1.27194
3431.06012	1.27758
3429.13147	1.28303
3427.20283	1.28831
3425.27418	1.29364
3423.34554	1.29925
3421.41689	1.30514
3419.48825	1.31107
3417.55960	1.31659
3415.63095	1.32126
3413.70231	1.32490
3411.77366	1.32771
3409.84502	1.33032
3407.91637	1.33357
3405.98773	1.33813
3404.05908	1.34415
3402.13044	1.35113
3400.20179	1.35808
3398.27315	1.36395
3396.34450	1.36813
3394.41586	1.37062
3392.48721	1.37198
3390.55856	1.37294
3388.62992	1.37411
3386.70127	1.37569
3384.77263	1.37752
3382.84398	1.37926
3380.91534	1.38068
3378.98669	1.38174
3377.05805	1.38255
3375.12940	1.38326
3373.20076	1.38398
3371.27211	1.38470
3369.34347	1.38534
3367.41482	1.38588
3365.48617	1.38641
3363.55753	1.38716
3361.62888	1.38829
3359.70024	1.38984
3357.77159	1.39160
3355.84295	1.39315
3353.91430	1.39409
3351.98566	1.39413
3350.05701	1.39336
3348.12837	1.39209
3346.19972	1.39073
3344.27108	1.38955
3342.34243	1.38862
3340.41378	1.38777
3338.48514	1.38672
3336.55649	1.38533
3334.62785	1.38368
3332.69920	1.38208
3330.77056	1.38089
3328.84191	1.38039
3326.91327	1.38069
3324.98462	1.38166
3323.05598	1.38290
3321.12733	1.38395
3319.19869	1.38438
3317.27004	1.38391
3315.34140	1.38251
3313.41275	1.38037
3311.48410	1.37789
3309.55546	1.37551
3307.62681	1.37362
3305.69817	1.37245
3303.76952	1.37207
3301.84088	1.37237
3299.91223	1.37304
3297.98359	1.37358
3296.05494	1.37346
3294.12630	1.37233
3292.19765	1.37016
3290.26901	1.36733
3288.34036	1.36439
3286.41171	1.36175
3284.48307	1.35949
3282.55442	1.35728
3280.62578	1.35467
3278.69713	1.35146
3276.76849	1.34793
3274.83984	1.34480
3272.91120	1.34279
3270.98255	1.34224
3269.05391	1.34283
3267.12526	1.34368
3265.19662	1.34366
3263.26797	1.34189
3261.33932	1.33819
3259.41068	1.33305
3257.48203	1.32735
3255.55339	1.32198
3253.62474	1.31741
3251.69610	1.31363
3249.76745	1.31021
3247.83881	1.30663
3245.91016	1.30253
3243.98152	1.29789
3242.05287	1.29289
3240.12423	1.28776
3238.19558	1.28277
3236.26693	1.27806
3234.33829	1.27372
3232.40964	1.26970
3230.48100	1.26593
3228.55235	1.26230
3226.62371	1.25863
3224.69506	1.25472
3222.76642	1.25047
3220.83777	1.24589
3218.90913	1.24109
3216.98048	1.23626
3215.05184	1.23166
3213.12319	1.22743
3211.19455	1.22349
3209.26590	1.21955
3207.33725	1.21519
3205.40861	1.21002
3203.47996	1.20385
3201.55132	1.19681
3199.62267	1.18928
3197.69403	1.18168
3195.76538	1.17435
3193.83674	1.16749
3191.90809	1.16117
3189.97945	1.15531
3188.05080	1.14972
3186.12216	1.14419
3184.19351	1.13849
3182.26486	1.13250
3180.33622	1.12628
3178.40757	1.12006
3176.47893	1.11413
3174.55028	1.10855
3172.62164	1.10312
3170.69299	1.09741
3168.76435	1.09111
3166.83570	1.08430
3164.90706	1.07745
3162.97841	1.07120
3161.04977	1.06597
3159.12112	1.06174
3157.19247	1.05798
3155.26383	1.05396
3153.33518	1.04911
3151.40654	1.04327
3149.47789	1.03675
3147.54925	1.03005
3145.62060	1.02370
3143.69196	1.01800
3141.76331	1.01287
3139.83467	1.00795
3137.90602	1.00280
3135.97738	0.99713
3134.04873	0.99093
3132.12008	0.98447
3130.19144	0.97816
3128.26279	0.97231
3126.33415	0.96701
3124.40550	0.96222
3122.47686	0.95793
3120.54821	0.95430
3118.61957	0.95150
3116.69092	0.94947
3114.76228	0.94777
3112.83363	0.94558
3110.90499	0.94213
3108.97634	0.93710
3107.04769	0.93084
3105.11905	0.92424
3103.19040	0.91827
3101.26176	0.91350
3099.33311	0.90982
3097.40447	0.90659
3095.47582	0.90302
3093.54718	0.89863
3091.61853	0.89343
3089.68989	0.88785
3087.76124	0.88247
3085.83260	0.87771
3083.90395	0.87362
3081.97531	0.86992
3080.04666	0.86615
3078.11801	0.86199
3076.18937	0.85739
3074.26072	0.85255
3072.33208	0.84777
3070.40343	0.84325
3068.47479	0.83896
3066.54614	0.83470
3064.61750	0.83023
3062.68885	0.82546
3060.76021	0.82047
3058.83156	0.81547
3056.90292	0.81068
3054.97427	0.80623
3053.04562	0.80214
3051.11698	0.79830
3049.18833	0.79458
3047.25969	0.79082
3045.33104	0.78684
3043.40240	0.78252
3041.47375	0.77781
3039.54511	0.77282
3037.61646	0.76778
3035.68782	0.76300
3033.75917	0.75873
3031.83053	0.75505
3029.90188	0.75189
3027.97323	0.74901
3026.04459	0.74612
3024.11594	0.74305
3022.18730	0.73972
3020.25865	0.73618
3018.33001	0.73256
3016.40136	0.72900
3014.47272	0.72564
3012.54407	0.72252
3010.61543	0.71961
3008.68678	0.71676
3006.75814	0.71382
3004.82949	0.71076
3002.90084	0.70769
3000.97220	0.70492
2999.04355	0.70284
2997.11491	0.70177
2995.18626	0.70177
2993.25762	0.70264
2991.32897	0.70412
2989.40033	0.70595
2987.47168	0.70798
2985.54304	0.71030
2983.61439	0.71313
2981.68575	0.71650
2979.75710	0.72022
2977.82845	0.72410
2975.89981	0.72814
2973.97116	0.73256
2972.04252	0.73784
2970.11387	0.74454
2968.18523	0.75284
2966.25658	0.76213
2964.32794	0.77111
2962.39929	0.77840
2960.47065	0.78293
2958.54200	0.78432
2956.61336	0.78289
2954.68471	0.77956
2952.75607	0.77546
2950.82742	0.77161
2948.89877	0.76892
2946.97013	0.76829
2945.04148	0.77040
2943.11284	0.77552
2941.18419	0.78339
2939.25555	0.79331
2937.32690	0.80450
2935.39826	0.81636
2933.46961	0.82878
2931.54097	0.84215
2929.61232	0.85705
2927.68368	0.87366
2925.75503	0.89124
2923.82638	0.90786
2921.89774	0.92041
2919.96909	0.92542
2918.04045	0.92024
2916.11180	0.90410
2914.18316	0.87864
2912.25451	0.84755
2910.32587	0.81544
2908.39722	0.78622
2906.46858	0.76214
2904.53993	0.74365
2902.61129	0.72992
2900.68264	0.71960
2898.75399	0.71145
2896.82535	0.70460
2894.89670	0.69851
2892.96806	0.69280
2891.03941	0.68722
2889.11077	0.68176
2887.18212	0.67659
2885.25348	0.67201
2883.32483	0.66836
2881.39619	0.66581
2879.46754	0.66428
2877.53890	0.66340
2875.61025	0.66264
2873.68160	0.66150
2871.75296	0.65966
2869.82431	0.65719
2867.89567	0.65471
2865.96702	0.65334
2864.03838	0.65453
2862.10973	0.65964
2860.18109	0.66942
2858.25244	0.68334
2856.32380	0.69903
2854.39515	0.71255
2852.46651	0.71953
2850.53786	0.71674
2848.60922	0.70328
2846.68057	0.68109
2844.75192	0.65444
2842.82328	0.62820
2840.89463	0.60595
2838.96599	0.58908
2837.03734	0.57709
2835.10870	0.56842
2833.18005	0.56133
2831.25141	0.55468
2829.32276	0.54828
2827.39412	0.54248
2825.46547	0.53748
2823.53683	0.53318
2821.60818	0.52930
2819.67953	0.52567
2817.75089	0.52234
2815.82224	0.51949
2813.89360	0.51734
2811.96495	0.51584
2810.03631	0.51456
2808.10766	0.51281
2806.17902	0.51010
2804.25037	0.50649
2802.32173	0.50264
2800.39308	0.49922
2798.46444	0.49654
2796.53579	0.49449
2794.60714	0.49268
2792.67850	0.49072
2790.74985	0.48840
2788.82121	0.48578
2786.89256	0.48310
2784.96392	0.48046
2783.03527	0.47772
2781.10663	0.47486
2779.17798	0.47211
2777.24934	0.46983
2775.32069	0.46825
2773.39205	0.46731
2771.46340	0.46669
2769.53475	0.46594
2767.60611	0.46471
2765.67746	0.46297
2763.74882	0.46105
2761.82017	0.45933
2759.89153	0.45801
2757.96288	0.45701
2756.03424	0.45609
2754.10559	0.45493
2752.17695	0.45323
2750.24830	0.45090
2748.31966	0.44811
2746.39101	0.44523
2744.46236	0.44264
2742.53372	0.44070
2740.60507	0.43956
2738.67643	0.43896
2736.74778	0.43838
2734.81914	0.43740
2732.89049	0.43586
2730.96185	0.43391
2729.03320	0.43188
2727.10456	0.43013
2725.17591	0.42877
2723.24727	0.42755
2721.31862	0.42608
2719.38998	0.42407
2717.46133	0.42145
2715.53268	0.41853
2713.60404	0.41576
2711.67539	0.41341
2709.74675	0.41142
2707.81810	0.40951
2705.88946	0.40739
2703.96081	0.40487
2702.03217	0.40199
2700.10352	0.39911
2698.17488	0.39664
2696.24623	0.39471
2694.31759	0.39312
2692.38894	0.39155
2690.46029	0.38978
2688.53165	0.38782
2686.60300	0.38589
2684.67436	0.38429
2682.74571	0.38322
2680.81707	0.38260
2678.88842	0.38212
2676.95978	0.38141
2675.03113	0.38021
2673.10249	0.37850
2671.17384	0.37634
2669.24520	0.37380
2667.31655	0.37089
2665.38790	0.36770
2663.45926	0.36441
2661.53061	0.36135
2659.60197	0.35893
2657.67332	0.35742
2655.74468	0.35674
2653.81603	0.35652
2651.88739	0.35634
2649.95874	0.35581
2648.03010	0.35467
2646.10145	0.35298
2644.17281	0.35092
2642.24416	0.34862
2640.31551	0.34606
2638.38687	0.34319
2636.45822	0.34000
2634.52958	0.33652
2632.60093	0.33293
2630.67229	0.32966
2628.74364	0.32714
2626.81500	0.32557
2624.88635	0.32492
2622.95771	0.32491
2621.02906	0.32497
2619.10042	0.32440
2617.17177	0.32271
2615.24312	0.31987
2613.31448	0.31634
2611.38583	0.31278
2609.45719	0.30985
2607.52854	0.30805
2605.59990	0.30743
2603.67125	0.30752
2601.74261	0.30763
2599.81396	0.30732
2597.88532	0.30655
2595.95667	0.30550
2594.02803	0.30448
2592.09938	0.30395
2590.17074	0.30413
2588.24209	0.30467
2586.31344	0.30488
2584.38480	0.30425
2582.45615	0.30265
2580.52751	0.30026
2578.59886	0.29757
2576.67022	0.29532
2574.74157	0.29402
2572.81293	0.29352
2570.88428	0.29332
2568.95564	0.29283
2567.02699	0.29159
2565.09835	0.28931
2563.16970	0.28621
2561.24105	0.28307
2559.31241	0.28086
2557.38376	0.28029
2555.45512	0.28154
2553.52647	0.28416
2551.59783	0.28709
2549.66918	0.28925
2547.74054	0.29019
2545.81189	0.29026
2543.88325	0.29016
2541.95460	0.29055
2540.02596	0.29167
2538.09731	0.29317
2536.16866	0.29424
2534.24002	0.29435
2532.31137	0.29376
2530.38273	0.29319
2528.45408	0.29319
2526.52544	0.29376
2524.59679	0.29437
2522.66815	0.29411
2520.73950	0.29233
2518.81086	0.28923
2516.88221	0.28592
2514.95357	0.28359
2513.02492	0.28292
2511.09627	0.28402
2509.16763	0.28640
2507.23898	0.28921
2505.31034	0.29160
2503.38169	0.29312
2501.45305	0.29368
2499.52440	0.29325
2497.59576	0.29195
2495.66711	0.29028
2493.73847	0.28891
2491.80982	0.28819
2489.88118	0.28808
2487.95253	0.28847
2486.02389	0.28945
2484.09524	0.29095
2482.16659	0.29275
2480.23795	0.29468
2478.30930	0.29663
2476.38066	0.29815
2474.45201	0.29856
2472.52337	0.29765
2470.59472	0.29574
2468.66608	0.29323
2466.73743	0.29053
2464.80879	0.28829
2462.88014	0.28712
2460.95150	0.28711
2459.02285	0.28810
2457.09420	0.29001
2455.16556	0.29265
2453.23691	0.29543
2451.30827	0.29765
2449.37962	0.29883
2447.45098	0.29873
2445.52233	0.29740
2443.59369	0.29544
2441.66504	0.29393
2439.73640	0.29369
2437.80775	0.29481
2435.87911	0.29665
2433.95046	0.29817
2432.02181	0.29843
2430.09317	0.29708
2428.16452	0.29456
2426.23588	0.29184
2424.30723	0.28983
2422.37859	0.28895
2420.44994	0.28895
2418.52130	0.28918
2416.59265	0.28919
2414.66401	0.28907
2412.73536	0.28923
2410.80672	0.29005
2408.87807	0.29158
2406.94942	0.29336
2405.02078	0.29471
2403.09213	0.29525
2401.16349	0.29521
2399.23484	0.29527
2397.30620	0.29598
2395.37755	0.29749
2393.44891	0.29942
2391.52026	0.30102
2389.59162	0.30155
2387.66297	0.30062
2385.73433	0.29826
2383.80568	0.29496
2381.87703	0.29146
2379.94839	0.28854
2378.01974	0.28669
2376.09110	0.28606
2374.16245	0.28647
2372.23381	0.28736
2370.30516	0.28795
2368.37652	0.28773
2366.44787	0.28678
2364.51923	0.28560
2362.59058	0.28473
2360.66194	0.28456
2358.73329	0.28519
2356.80465	0.28631
2354.87600	0.28732
2352.94735	0.28781
2351.01871	0.28790
2349.09006	0.28798
2347.16142	0.28830
2345.23277	0.28871
2343.30413	0.28881
2341.37548	0.28823
2339.44684	0.28694
2337.51819	0.28540
2335.58955	0.28437
2333.66090	0.28440
2331.73226	0.28539
2329.80361	0.28645
2327.87496	0.28638
2325.94632	0.28435
2324.01767	0.28043
2322.08903	0.27557
2320.16038	0.27121
2318.23174	0.26861
2316.30309	0.26816
2314.37445	0.26924
2312.44580	0.27059
2310.51716	0.27111
2308.58851	0.27040
2306.65987	0.26883
2304.73122	0.26709
2302.80257	0.26565
2300.87393	0.26445
2298.94528	0.26307
2297.01664	0.26118
2295.08799	0.25895
2293.15935	0.25702
2291.23070	0.25612
2289.30206	0.25643
2287.37341	0.25739
2285.44477	0.25802
2283.51612	0.25735
2281.58748	0.25491
2279.65883	0.25092
2277.73018	0.24628
2275.80154	0.24219
2273.87289	0.23966
2271.94425	0.23915
2270.01560	0.24045
2268.08696	0.24260
2266.15831	0.24426
2264.22967	0.24414
2262.30102	0.24164
2260.37238	0.23715
2258.44373	0.23184
2256.51509	0.22694
2254.58644	0.22308
2252.65779	0.22037
2250.72915	0.21892
2248.80050	0.21902
2246.87186	0.22072
2244.94321	0.22348
2243.01457	0.22618
2241.08592	0.22694
2239.15728	0.22371
2237.22863	0.21581
2235.29999	0.20530
2233.37134	0.19589
2231.44270	0.19028
2229.51405	0.18840
2227.58541	0.18774
2225.65676	0.18485
2223.72811	0.17727
2221.79947	0.16591
2219.87082	0.15560
2217.94218	0.15246
2216.01353	0.15990
2214.08489	0.17645
2212.15624	0.19658
2210.22760	0.21348
2208.29895	0.22250
2206.37031	0.22303
2204.44166	0.21769
2202.51302	0.20999
2200.58437	0.20252
2198.65572	0.19599
2196.72708	0.18926
2194.79843	0.18086
2192.86979	0.17079
2190.94114	0.16023
2189.01250	0.15010
2187.08385	0.14086
2185.15521	0.13309
2183.22656	0.12693
2181.29792	0.12198
2179.36927	0.11879
2177.44063	0.11857
2175.51198	0.12075
2173.58333	0.12275
2171.65469	0.12167
2169.72604	0.11426
2167.79740	0.09720
2165.86875	0.07059
2163.94011	0.04061
2162.01146	0.01580
2160.08282	0.00159
2158.15417	0.00000
2156.22553	0.01037
2154.29688	0.02806
2152.36824	0.04634
2150.43959	0.06203
2148.51094	0.07691
2146.58230	0.09322
2144.65365	0.11077
2142.72501	0.12819
2140.79636	0.14349
2138.86772	0.15357
2136.93907	0.15641
2135.01043	0.15346
2133.08178	0.14832
2131.15314	0.14369
2129.22449	0.14093
2127.29585	0.14068
2125.36720	0.14271
2123.43856	0.14610
2121.50991	0.15036
2119.58126	0.15551
2117.65262	0.16124
2115.72397	0.16649
2113.79533	0.16990
2111.86668	0.17035
2109.93804	0.16735
2108.00939	0.16163
2106.08075	0.15513
2104.15210	0.15005
2102.22346	0.14786
2100.29481	0.14866
2098.36617	0.15134
2096.43752	0.15445
2094.50887	0.15694
2092.58023	0.15857
2090.65158	0.15974
2088.72294	0.16078
2086.79429	0.16134
2084.86565	0.16033
2082.93700	0.15660
2081.00836	0.15000
2079.07971	0.14154
2077.15107	0.13277
2075.22242	0.12503
2073.29378	0.11902
2071.36513	0.11480
2069.43648	0.11216
2067.50784	0.11136
2065.57919	0.11331
2063.65055	0.11895
2061.72190	0.12818
2059.79326	0.13923
2057.86461	0.14888
2055.93597	0.15350
2054.00732	0.15039
2052.07868	0.13872
2050.15003	0.11977
2048.22139	0.09661
2046.29274	0.07327
2044.36409	0.05351
2042.43545	0.03962
2040.50680	0.03186
2038.57816	0.02857
2036.64951	0.02730
2034.72087	0.02623
2032.79222	0.02556
2030.86358	0.02745
2028.93493	0.03448
2027.00629	0.04704
2025.07764	0.06290
2023.14900	0.07785
2021.22035	0.08696
2019.29170	0.08764
2017.36306	0.08136
2015.43441	0.07294
2013.50577	0.06791
2011.57712	0.06998
2009.64848	0.07974
2007.71983	0.09457
2005.79119	0.10972
2003.86254	0.12051
2001.93390	0.12434
2000.00525	0.12138
1998.07661	0.11397
1996.14796	0.10552
1994.21932	0.09932
1992.29067	0.09743
1990.36202	0.10009
1988.43338	0.10596
1986.50473	0.11308
1984.57609	0.11955
1982.64744	0.12371
1980.71880	0.12401
1978.79015	0.11951
1976.86151	0.11075
1974.93286	0.09990
1973.00422	0.09014
1971.07557	0.08432
1969.14693	0.08372
1967.21828	0.08743
1965.28963	0.09293
1963.36099	0.09788
1961.43234	0.10171
1959.50370	0.10578
1957.57505	0.11212
1955.64641	0.12178
1953.71776	0.13382
1951.78912	0.14568
1949.86047	0.15460
1947.93183	0.15899
1946.00318	0.15901
1944.07454	0.15618
1942.14589	0.15254
1940.21724	0.14987
1938.28860	0.14915
1936.35995	0.15045
1934.43131	0.15326
1932.50266	0.15671
1930.57402	0.15980
1928.64537	0.16165
1926.71673	0.16187
1924.78808	0.16069
1922.85944	0.15872
1920.93079	0.15653
1919.00215	0.15448
1917.07350	0.15283
1915.14485	0.15187
1913.21621	0.15180
1911.28756	0.15259
1909.35892	0.15392
1907.43027	0.15526
1905.50163	0.15609
1903.57298	0.15616
1901.64434	0.15579
1899.71569	0.15575
1897.78705	0.15665
1895.85840	0.15847
1893.92976	0.16056
1892.00111	0.16215
1890.07246	0.16283
1888.14382	0.16273
1886.21517	0.16229
1884.28653	0.16192
1882.35788	0.16168
1880.42924	0.16115
1878.50059	0.15977
1876.57195	0.15733
1874.64330	0.15415
1872.71466	0.15097
1870.78601	0.14858
1868.85737	0.14751
1866.92872	0.14780
1865.00008	0.14910
1863.07143	0.15077
1861.14278	0.15225
1859.21414	0.15316
1857.28549	0.15351
1855.35685	0.15358
1853.42820	0.15373
1851.49956	0.15422
1849.57091	0.15508
1847.64227	0.15613
1845.71362	0.15710
1843.78498	0.15776
1841.85633	0.15804
1839.92769	0.15801
1837.99904	0.15782
1836.07039	0.15761
1834.14175	0.15745
1832.21310	0.15739
1830.28446	0.15745
1828.35581	0.15760
1826.42717	0.15778
1824.49852	0.15795
1822.56988	0.15808
1820.64123	0.15813
1818.71259	0.15812
1816.78394	0.15813
1814.85530	0.15831
1812.92665	0.15880
1810.99800	0.15965
1809.06936	0.16078
1807.14071	0.16198
1805.21207	0.16298
1803.28342	0.16361
1801.35478	0.16392
1799.42613	0.16412
1797.49749	0.16453
1795.56884	0.16545
1793.64020	0.16703
1791.71155	0.16915
1789.78291	0.17152
1787.85426	0.17378
1785.92561	0.17570
1783.99697	0.17716
1782.06832	0.17819
1780.13968	0.17895
1778.21103	0.17964
1776.28239	0.18047
1774.35374	0.18161
1772.42510	0.18326
1770.49645	0.18553
1768.56781	0.18844
1766.63916	0.19186
1764.71052	0.19562
1762.78187	0.19953
1760.85322	0.20348
1758.92458	0.20751
1756.99593	0.21180
1755.06729	0.21659
1753.13864	0.22211
1751.21000	0.22854
1749.28135	0.23595
1747.35271	0.24419
1745.42406	0.25295
1743.49542	0.26187
1741.56677	0.27066
1739.63813	0.27919
1737.70948	0.28756
1735.78084	0.29598
1733.85219	0.30461
1731.92354	0.31336
1729.99490	0.32186
1728.06625	0.32965
1726.13761	0.33640
1724.20896	0.34209
1722.28032	0.34699
1720.35167	0.35154
1718.42303	0.35620
1716.49438	0.36132
1714.56574	0.36703
1712.63709	0.37330
1710.70845	0.38004
1708.77980	0.38723
1706.85115	0.39496
1704.92251	0.40350
1702.99386	0.41335
1701.06522	0.42515
1699.13657	0.43936
1697.20793	0.45606
1695.27928	0.47486
1693.35064	0.49504
1691.42199	0.51585
1689.49335	0.53680
1687.56470	0.55788
1685.63606	0.57943
1683.70741	0.60183
1681.77876	0.62520
1679.85012	0.64931
1677.92147	0.67373
1675.99283	0.69804
1674.06418	0.72202
1672.13554	0.74566
1670.20689	0.76909
1668.27825	0.79238
1666.34960	0.81529
1664.42096	0.83730
1662.49231	0.85768
1660.56367	0.87570
1658.63502	0.89083
1656.70637	0.90285
1654.77773	0.91201
1652.84908	0.91882
1650.92044	0.92386
1648.99179	0.92754
1647.06315	0.93001
1645.13450	0.93125
1643.20586	0.93110
1641.27721	0.92950
1639.34857	0.92651
1637.41992	0.92238
1635.49128	0.91736
1633.56263	0.91166
1631.63399	0.90540
1629.70534	0.89870
1627.77669	0.89173
1625.84805	0.88474
1623.91940	0.87810
1621.99076	0.87222
1620.06211	0.86741
1618.13347	0.86383
1616.20482	0.86147
1614.27618	0.86012
1612.34753	0.85941
1610.41889	0.85887
1608.49024	0.85797
1606.56160	0.85621
1604.63295	0.85316
1602.70430	0.84862
1600.77566	0.84258
1598.84701	0.83520
1596.91837	0.82669
1594.98972	0.81730
1593.06108	0.80717
1591.13243	0.79642
1589.20379	0.78512
1587.27514	0.77339
1585.34650	0.76140
1583.41785	0.74937
1581.48921	0.73753
1579.56056	0.72605
1577.63191	0.71503
1575.70327	0.70447
1573.77462	0.69423
1571.84598	0.68405
1569.91733	0.67361
1567.98869	0.66269
1566.06004	0.65133
1564.13140	0.63987
1562.20275	0.62889
1560.27411	0.61909
1558.34546	0.61094
1556.41682	0.60441
1554.48817	0.59894
1552.55952	0.59355
1550.63088	0.58718
1548.70223	0.57908
1546.77359	0.56902
1544.84494	0.55734
1542.91630	0.54484
1540.98765	0.53242
1539.05901	0.52080
1537.13036	0.51031
1535.20172	0.50093
1533.27307	0.49244
1531.34443	0.48466
1529.41578	0.47758
1527.48713	0.47131
1525.55849	0.46604
1523.62984	0.46171
1521.70120	0.45786
1519.77255	0.45355
1517.84391	0.44762
1515.91526	0.43903
1513.98662	0.42738
1512.05797	0.41310
1510.12933	0.39738
1508.20068	0.38175
1506.27204	0.36752
1504.34339	0.35536
1502.41475	0.34518
1500.48610	0.33633
1498.55745	0.32812
1496.62881	0.32013
1494.70016	0.31232
1492.77152	0.30498
1490.84287	0.29853
1488.91423	0.29331
1486.98558	0.28958
1485.05694	0.28754
1483.12829	0.28754
1481.19965	0.29012
1479.27100	0.29589
1477.34236	0.30524
1475.41371	0.31803
1473.48506	0.33345
1471.55642	0.34999
1469.62777	0.36577
1467.69913	0.37902
1465.77048	0.38859
1463.84184	0.39417
1461.91319	0.39623
1459.98455	0.39572
1458.05590	0.39369
1456.12726	0.39102
1454.19861	0.38819
1452.26997	0.38540
1450.34132	0.38268
1448.41267	0.38007
1446.48403	0.37766
1444.55538	0.37567
1442.62674	0.37438
1440.69809	0.37412
1438.76945	0.37523
1436.84080	0.37794
1434.91216	0.38238
1432.98351	0.38844
1431.05487	0.39586
1429.12622	0.40418
1427.19758	0.41294
1425.26893	0.42175
1423.34028	0.43039
1421.41164	0.43887
1419.48299	0.44735
1417.55435	0.45602
1415.62570	0.46491
1413.69706	0.47385
1411.76841	0.48243
1409.83977	0.49010
1407.91112	0.49634
1405.98248	0.50078
1404.05383	0.50331
1402.12519	0.50399
1400.19654	0.50305
1398.26789	0.50073
1396.33925	0.49726
1394.41060	0.49287
1392.48196	0.48775
1390.55331	0.48213
1388.62467	0.47627
1386.69602	0.47036
1384.76738	0.46449
1382.83873	0.45863
1380.91009	0.45264
1378.98144	0.44641
1377.05280	0.43986
1375.12415	0.43302
1373.19551	0.42596
1371.26686	0.41875
1369.33821	0.41150
1367.40957	0.40432
1365.48092	0.39740
1363.55228	0.39097
1361.62363	0.38520
1359.69499	0.38011
1357.76634	0.37559
1355.83770	0.37146
1353.90905	0.36750
1351.98041	0.36359
1350.05176	0.35973
1348.12312	0.35603
1346.19447	0.35259
1344.26582	0.34947
1342.33718	0.34664
1340.40853	0.34400
1338.47989	0.34140
1336.55124	0.33878
1334.62260	0.33620
1332.69395	0.33385
1330.76531	0.33195
1328.83666	0.33062
1326.90802	0.32979
1324.97937	0.32924
1323.05073	0.32868
1321.12208	0.32792
1319.19343	0.32699
1317.26479	0.32610
1315.33614	0.32551
1313.40750	0.32539
1311.47885	0.32572
1309.55021	0.32633
1307.62156	0.32701
1305.69292	0.32764
1303.76427	0.32825
1301.83563	0.32904
1299.90698	0.33030
1297.97834	0.33222
1296.04969	0.33490
1294.12104	0.33825
1292.19240	0.34209
1290.26375	0.34620
1288.33511	0.35040
1286.40646	0.35464
1284.47782	0.35891
1282.54917	0.36322
1280.62053	0.36757
1278.69188	0.37195
1276.76324	0.37635
1274.83459	0.38082
1272.90595	0.38546
1270.97730	0.39038
1269.04866	0.39560
1267.12001	0.40101
1265.19136	0.40635
1263.26272	0.41129
1261.33407	0.41553
1259.40543	0.41889
1257.47678	0.42132
1255.54814	0.42292
1253.61949	0.42389
1251.69085	0.42445
1249.76220	0.42481
1247.83356	0.42512
1245.90491	0.42545
1243.97627	0.42581
1242.04762	0.42616
1240.11897	0.42646
1238.19033	0.42666
1236.26168	0.42676
1234.33304	0.42679
1232.40439	0.42682
1230.47575	0.42690
1228.54710	0.42707
1226.61846	0.42737
1224.68981	0.42787
1222.76117	0.42866
1220.83252	0.42987
1218.90388	0.43162
1216.97523	0.43398
1215.04658	0.43694
1213.11794	0.44042
1211.18929	0.44438
1209.26065	0.44876
1207.33200	0.45350
1205.40336	0.45856
1203.47471	0.46403
1201.54607	0.47005
1199.61742	0.47683
1197.68878	0.48456
1195.76013	0.49345
1193.83149	0.50377
1191.90284	0.51582
1189.97419	0.52995
1188.04555	0.54652
1186.11690	0.56571
1184.18826	0.58727
1182.25961	0.61057
1180.33097	0.63488
1178.40232	0.65973
1176.47368	0.68517
1174.54503	0.71177
1172.61639	0.74019
1170.68774	0.77052
1168.75910	0.80191
1166.83045	0.83274
1164.90180	0.86130
1162.97316	0.88645
1161.04451	0.90819
1159.11587	0.92768
1157.18722	0.94657
1155.25858	0.96626
1153.32993	0.98751
1151.40129	1.01057
1149.47264	1.03536
1147.54400	1.06177
1145.61535	1.08974
1143.68671	1.11925
1141.75806	1.15013
1139.82942	1.18213
1137.90077	1.21515
1135.97212	1.24918
1134.04348	1.28416
1132.11483	1.31981
1130.18619	1.35562
1128.25754	1.39080
1126.32890	1.42446
1124.40025	1.45602
1122.47161	1.48537
1120.54296	1.51268
1118.61432	1.53825
1116.68567	1.56261
1114.75703	1.58644
1112.82838	1.61032
1110.89973	1.63467
1108.97109	1.65974
1107.04244	1.68542
1105.11380	1.71121
1103.18515	1.73670
1101.25651	1.76189
1099.32786	1.78710
1097.39922	1.81267
1095.47057	1.83883
1093.54193	1.86544
1091.61328	1.89180
1089.68464	1.91688
1087.75599	1.93979
1085.82734	1.95981
1083.89870	1.97631
1081.97005	1.98871
1080.04141	1.99663
1078.11276	2.00000
1076.18412	1.99912
1074.25547	1.99472
1072.32683	1.98780
1070.39818	1.97934
1068.46954	1.97014
1066.54089	1.96070
1064.61225	1.95122
1062.68360	1.94174
1060.75495	1.93237
1058.82631	1.92335
1056.89766	1.91503
1054.96902	1.90781
1053.04037	1.90210
1051.11173	1.89807
1049.18308	1.89539
1047.25444	1.89337
1045.32579	1.89122
1043.39715	1.88844
1041.46850	1.88485
1039.53986	1.88047
1037.61121	1.87518
1035.68256	1.86858
1033.75392	1.86004
1031.82527	1.84898
1029.89663	1.83524
1027.96798	1.81922
1026.03934	1.80166
1024.11069	1.78309
1022.18205	1.76367
1020.25340	1.74348
1018.32476	1.72289
1016.39611	1.70248
1014.46747	1.68298
1012.53882	1.66491
1010.61018	1.64818
1008.68153	1.63205
1006.75288	1.61577
1004.82424	1.59919
1002.89559	1.58272
1000.96695	1.56675
999.03830	1.55143
997.10966	1.53672
995.18101	1.52227
993.25237	1.50749
991.32372	1.49193
989.39508	1.47554
987.46643	1.45815
985.53779	1.43903
983.60914	1.41711
981.68049	1.39145
979.75185	1.36146
977.82320	1.32689
975.89456	1.28811
973.96591	1.24620
972.03727	1.20271
970.10862	1.15930
968.17998	1.11746
966.25133	1.07832
964.32269	1.04258
962.39404	1.01038
960.46540	0.98151
958.53675	0.95558
956.60810	0.93231
954.67946	0.91153
952.75081	0.89311
950.82217	0.87712
948.89352	0.86383
946.96488	0.85350
945.03623	0.84607
943.10759	0.84117
941.17894	0.83803
939.25030	0.83537
937.32165	0.83166
935.39301	0.82588
933.46436	0.81786
931.53571	0.80796
929.60707	0.79666
927.67842	0.78447
925.74978	0.77177
923.82113	0.75864
921.89249	0.74528
919.96384	0.73239
918.03520	0.72095
916.10655	0.71153
914.17791	0.70383
912.24926	0.69689
910.32062	0.68949
908.39197	0.68073
906.46333	0.67054
904.53468	0.65966
902.60603	0.64911
900.67739	0.63964
898.74874	0.63160
896.82010	0.62518
894.89145	0.62059
892.96281	0.61803
891.03416	0.61744
889.10552	0.61837
887.17687	0.61983
885.24823	0.62045
883.31958	0.61905
881.39094	0.61531
879.46229	0.60973
877.53364	0.60276
875.60500	0.59441
873.67635	0.58455
871.74771	0.57293
869.81906	0.55929
867.89042	0.54386
865.96177	0.52787
864.03313	0.51287
862.10448	0.49961
860.17584	0.48785
858.24719	0.47681
856.31855	0.46554
854.38990	0.45311
852.46125	0.43942
850.53261	0.42544
848.60396	0.41264
846.67532	0.40216
844.74667	0.39443
842.81803	0.38935
840.88938	0.38643
838.96074	0.38496
837.03209	0.38405
835.10345	0.38267
833.17480	0.37969
831.24616	0.37428
829.31751	0.36645
827.38886	0.35716
825.46022	0.34819
823.53157	0.34144
821.60293	0.33825
819.67428	0.33888
817.74564	0.34279
815.81699	0.34970
813.88835	0.36024
811.95970	0.37574
810.03106	0.39739
808.10241	0.42568
806.17377	0.45984
804.24512	0.49730
802.31647	0.53403
800.38783	0.56565
798.45918	0.58865
796.53054	0.60099
794.60189	0.60264
792.67325	0.59616
790.74460	0.58604
788.81596	0.57723
786.88731	0.57370
784.95867	0.57726
783.03002	0.58691
781.10138	0.59905
779.17273	0.60905
777.24409	0.61318
775.31544	0.60957
773.38679	0.59849
771.45815	0.58208
769.52950	0.56349
767.60086	0.54554
765.67221	0.52987
763.74357	0.51709
761.81492	0.50725
759.88628	0.50000
757.95763	0.49453
756.02899	0.48994
754.10034	0.48566
752.17170	0.48130
750.24305	0.47632
748.31440	0.46991
746.38576	0.46145
744.45711	0.45096
742.52847	0.43909
740.59982	0.42686
738.67118	0.41546
736.74253	0.40626
734.81389	0.40022
732.88524	0.39731
730.95660	0.39688
729.02795	0.39842
727.09931	0.40151
725.17066	0.40520
723.24201	0.40793
721.31337	0.40847
719.38472	0.40625
717.45608	0.40139
715.52743	0.39469
713.59879	0.38758
711.67014	0.38168
709.74150	0.37816
707.81285	0.37768
705.88421	0.38075
703.95556	0.38768
702.02692	0.39830
700.09827	0.41161
698.16962	0.42569
696.24098	0.43812
694.31233	0.44665
692.38369	0.44988
690.45504	0.44775
688.52640	0.44143
686.59775	0.43277
684.66911	0.42363
682.74046	0.41524
680.81182	0.40822
678.88317	0.40278
676.95453	0.39884
675.02588	0.39625
673.09723	0.39471
671.16859	0.39381
669.23994	0.39297
667.31130	0.39156
665.38265	0.38928
663.45401	0.38640
661.52536	0.38344
659.59672	0.38090
657.66807	0.37921
655.73943	0.37869
653.81078	0.37961
651.88214	0.38208
649.95349	0.38614
648.02485	0.39164
646.09620	0.39814
644.16755	0.40486
642.23891	0.41085
640.31026	0.41518
638.38162	0.41731
636.45297	0.41751
634.52433	0.41684
632.59568	0.41685
630.66704	0.41889
628.73839	0.42309
626.80975	0.42731
624.88110	0.42710
622.95246	0.41783
621.02381	0.39802
619.09516	0.37108
617.16652	0.34450
615.23787	0.32732
613.30923	0.32668
611.38058	0.34455
609.45194	0.37647
607.52329	0.41387
605.59465	0.44838
603.66600	0.47461
601.73736	0.49065
599.80871	0.49764
597.88007	0.49895
595.95142	0.49872
594.02277	0.50011
592.09413	0.50473
590.16548	0.51283
588.23684	0.52357
586.30819	0.53530
584.37955	0.54655
582.45090	0.55692
580.52226	0.56715
578.59361	0.57843
576.66497	0.59170
574.73632	0.60722
572.80768	0.62457
570.87903	0.64309
568.95038	0.66246
567.02174	0.68277
565.09309	0.70420
563.16445	0.72655
561.23580	0.74921
559.30716	0.77135
557.37851	0.79240
555.44987	0.81271
553.52122	0.83362
551.59258	0.85691
549.66393	0.88378
547.73529	0.91425
545.80664	0.94717
543.87800	0.98080
541.94935	1.01348
540.02070	1.04418
538.09206	1.07245
536.16341	1.09815
534.23477	1.12125
532.30612	1.14166
530.37748	1.15921
528.44883	1.17344
526.52019	1.18351
524.59154	1.18810
522.66290	1.18583
520.73425	1.17603
518.80561	1.15920
516.87696	1.13687
514.94831	1.11103
513.01967	1.08350
511.09102	1.05563
509.16238	1.02839
507.23373	1.00286
505.30509	0.98055
503.37644	0.96310
501.44780	0.95182
499.51915	0.94731
497.59051	0.94938
495.66186	0.95734
493.73322	0.97049
491.80457	0.98846
489.87592	1.01121
487.94728	1.03899
486.01863	1.07220
484.08999	1.11097
482.16134	1.15471
480.23270	1.20186
478.30405	1.24993
476.37541	1.29567
474.44676	1.33557
472.51812	1.36652
470.58947	1.38631
468.66083	1.39406
466.73218	1.39031
464.80353	1.37696
462.87489	1.35672
460.94624	1.33225
459.01760	1.30537
457.08895	1.27657
455.16031	1.24517
453.23166	1.21022
451.30302	1.17164
449.37437	1.13087
447.44573	1.09057
445.51708	1.05378
443.58844	1.02287
441.65979	0.99872
439.73114	0.98057
437.80250	0.96645
435.87385	0.95401
433.94521	0.94119
432.01656	0.92660
430.08792	0.90966
428.15927	0.89062
426.23063	0.87031
424.30198	0.84977
422.37334	0.82974
420.44469	0.81027
418.51605	0.79057
416.58740	0.76925
414.65876	0.74515
412.73011	0.71849
410.80146	0.69172
408.87282	0.66949
406.94417	0.65745
405.01553	0.65991
403.08688	0.67749
401.15824	0.70573
399.22959	0.73584
397.30095	0.75747
395.37230	0.76242
393.44366	0.74778
391.51501	0.71682
389.58637	0.67751
387.65772	0.63943
385.72907	0.61077
383.80043	0.59638
381.87178	0.59717
379.94314	0.61084
378.01449	0.63300
376.08585	0.65808
374.15720	0.68009
372.22856	0.69361
370.29991	0.69499
368.37127	0.68324
366.44262	0.66011
364.51398	0.62932
362.58533	0.59519
360.65668	0.56135
358.72804	0.53000
356.79939	0.50195
354.87075	0.47729
352.94210	0.45601
351.01346	0.43811
349.08481	0.42328
347.15617	0.41061
345.22752	0.39879
343.29888	0.38652
341.37023	0.37287
339.44159	0.35741
337.51294	0.34005
335.58429	0.32066
333.65565	0.29887
331.72700	0.27445
329.79836	0.24805
327.86971	0.22154
325.94107	0.19767
324.01242	0.17910
322.08378	0.16717
320.15513	0.16130
318.22649	0.15919
316.29784	0.15789
314.36920	0.15500
312.44055	0.14958
310.51190	0.14224
308.58326	0.13450
306.65461	0.12812
304.72597	0.12437
302.79732	0.12371
300.86868	0.12569
298.94003	0.12930
297.01139	0.13321
295.08274	0.13604
293.15410	0.13635
291.22545	0.13268
289.29681	0.12377
287.36816	0.10931
285.43952	0.09008
283.51087	0.06835
281.58222	0.04838
279.65358	0.03497
277.72493	0.03186
275.79629	0.04041
273.86764	0.05937
271.93900	0.08564
270.01035	0.11547
268.08171	0.14545
266.15306	0.17293
264.22442	0.19581
262.29577	0.21229
260.36713	0.22112
258.43848	0.22219
256.50983	0.21680
254.58119	0.20731
252.65254	0.19657
250.72390	0.18707
248.79525	0.18037
246.86661	0.17697
244.93796	0.17649
243.00932	0.17787
241.08067	0.17946
239.15203	0.17952
237.22338	0.17715
235.29474	0.17295
233.36609	0.16897
231.43744	0.16806
229.50880	0.17259
227.58015	0.18322
225.65151	0.19839
223.72286	0.21518
221.79422	0.23067
219.86557	0.24284
217.93693	0.25084
216.00828	0.25469
214.07964	0.25516
212.15099	0.25372
210.22235	0.25255
208.29370	0.25405
206.36505	0.26006
204.43641	0.27088
202.50776	0.28471
200.57912	0.29821
198.65047	0.30856
196.72183	0.31542
194.79318	0.32109
192.86454	0.32858
190.93589	0.33918
189.00725	0.35113
187.07860	0.36048
185.14996	0.36399
183.22131	0.36245
181.29267	0.36159
179.36402	0.36939
177.43537	0.39113
175.50673	0.42569
173.57808	0.46536
171.64944	0.49930
169.72079	0.51856
167.79215	0.51977
165.86350	0.50662
163.93486	0.48906
162.00621	0.49124
160.07757	0.51063
158.14892	0.54121
156.22028	0.57479
154.29163	0.57479
152.36298	0.57479
150.43434	0.57479
148.50569	0.57479
