4497.60101	0.16902
4495.67236	0.16902
4493.74372	0.16902
4491.81507	0.16902
4489.88643	0.16902
4487.95778	0.16558
4486.02914	0.16129
4484.10049	0.15735
4482.17185	0.15524
4480.24320	0.15658
4478.31455	0.16133
4476.38591	0.16805
4474.45726	0.17443
4472.52862	0.17881
4470.59997	0.18041
4468.67133	0.17908
4466.74268	0.17584
4464.81404	0.17271
4462.88539	0.17122
4460.95675	0.17156
4459.02810	0.17316
4457.09946	0.17527
4455.17081	0.17691
4453.24216	0.17720
4451.31352	0.17601
4449.38487	0.17388
4447.45623	0.17125
4445.52758	0.16830
4443.59894	0.16519
4441.67029	0.16230
4439.74165	0.16033
4437.81300	0.16005
4435.88436	0.16177
4433.95571	0.16518
4432.02707	0.16948
4430.09842	0.17345
4428.16978	0.17572
4426.24113	0.17541
4424.31248	0.17272
4422.38384	0.16862
4420.45519	0.16431
4418.52655	0.16124
4416.59790	0.16074
4414.66926	0.16311
4412.74061	0.16714
4410.81197	0.17075
4408.88332	0.17225
4406.95468	0.17115
4405.02603	0.16831
4403.09739	0.16536
4401.16874	0.16361
4399.24009	0.16336
4397.31145	0.16400
4395.38280	0.16462
4393.45416	0.16471
4391.52551	0.16476
4389.59687	0.16599
4387.66822	0.16920
4385.73958	0.17375
4383.81093	0.17785
4381.88229	0.17988
4379.95364	0.17890
4378.02500	0.17476
4376.09635	0.16848
4374.16770	0.16245
4372.23906	0.15928
4370.31041	0.16024
4368.38177	0.16476
4366.45312	0.17112
4364.52448	0.17706
4362.59583	0.18049
4360.66719	0.18044
4358.73854	0.17742
4356.80990	0.17286
4354.88125	0.16834
4352.95261	0.16503
4351.02396	0.16355
4349.09531	0.16392
4347.16667	0.16585
4345.23802	0.16873
4343.30938	0.17177
4341.38073	0.17417
4339.45209	0.17540
4337.52344	0.17530
4335.59480	0.17403
4333.66615	0.17203
4331.73751	0.16974
4329.80886	0.16746
4327.88022	0.16560
4325.95157	0.16474
4324.02292	0.16523
4322.09428	0.16698
4320.16563	0.16977
4318.23699	0.17329
4316.30834	0.17700
4314.37970	0.18022
4312.45105	0.18249
4310.52241	0.18357
4308.59376	0.18309
4306.66512	0.18086
4304.73647	0.17718
4302.80783	0.17292
4300.87918	0.16921
4298.95054	0.16698
4297.02189	0.16649
4295.09324	0.16727
4293.16460	0.16849
4291.23595	0.16950
4289.30731	0.16994
4287.37866	0.16967
4285.45002	0.16871
4283.52137	0.16720
4281.59273	0.16540
4279.66408	0.16364
4277.73544	0.16241
4275.80679	0.16233
4273.87815	0.16357
4271.94950	0.16553
4270.02085	0.16721
4268.09221	0.16796
4266.16356	0.16773
4264.23492	0.16682
4262.30627	0.16577
4260.37763	0.16536
4258.44898	0.16628
4256.52034	0.16867
4254.59169	0.17193
4252.66305	0.17503
4250.73440	0.17696
4248.80576	0.17697
4246.87711	0.17494
4244.94846	0.17145
4243.01982	0.16757
4241.09117	0.16441
4239.16253	0.16261
4237.23388	0.16218
4235.30524	0.16284
4233.37659	0.16425
4231.44795	0.16596
4229.51930	0.16728
4227.59066	0.16759
4225.66201	0.16683
4223.73337	0.16554
4221.80472	0.16428
4219.87607	0.16345
4217.94743	0.16327
4216.01878	0.16343
4214.09014	0.16321
4212.16149	0.16226
4210.23285	0.16110
4208.30420	0.16056
4206.37556	0.16116
4204.44691	0.16303
4202.51827	0.16605
4200.58962	0.16962
4198.66098	0.17290
4196.73233	0.17529
4194.80368	0.17662
4192.87504	0.17684
4190.94639	0.17596
4189.01775	0.17415
4187.08910	0.17185
4185.16046	0.16957
4183.23181	0.16760
4181.30317	0.16619
4179.37452	0.16570
4177.44588	0.16646
4175.51723	0.16832
4173.58859	0.17052
4171.65994	0.17200
4169.73130	0.17204
4167.80265	0.17051
4165.87400	0.16817
4163.94536	0.16658
4162.01671	0.16721
4160.08807	0.17031
4158.15942	0.17460
4156.23078	0.17817
4154.30213	0.17944
4152.37349	0.17769
4150.44484	0.17342
4148.51620	0.16819
4146.58755	0.16370
4144.65891	0.16087
4142.73026	0.15986
4140.80161	0.16047
4138.87297	0.16227
4136.94432	0.16447
4135.01568	0.16643
4133.08703	0.16798
4131.15839	0.16913
4129.22974	0.16982
4127.30110	0.17000
4125.37245	0.16987
4123.44381	0.16956
4121.51516	0.16900
4119.58652	0.16819
4117.65787	0.16749
4115.72922	0.16730
4113.80058	0.16789
4111.87193	0.16949
4109.94329	0.17225
4108.01464	0.17594
4106.08600	0.17959
4104.15735	0.18182
4102.22871	0.18167
4100.30006	0.17905
4098.37142	0.17490
4096.44277	0.17086
4094.51413	0.16849
4092.58548	0.16850
4090.65683	0.17039
4088.72819	0.17293
4086.79954	0.17501
4084.87090	0.17633
4082.94225	0.17715
4081.01361	0.17773
4079.08496	0.17819
4077.15632	0.17847
4075.22767	0.17849
4073.29903	0.17820
4071.37038	0.17767
4069.44174	0.17699
4067.51309	0.17611
4065.58444	0.17497
4063.65580	0.17385
4061.72715	0.17321
4059.79851	0.17347
4057.86986	0.17463
4055.94122	0.17616
4054.01257	0.17716
4052.08393	0.17701
4050.15528	0.17584
4048.22664	0.17438
4046.29799	0.17349
4044.36935	0.17386
4042.44070	0.17583
4040.51206	0.17916
4038.58341	0.18309
4036.65476	0.18660
4034.72612	0.18862
4032.79747	0.18823
4030.86883	0.18514
4028.94018	0.18007
4027.01154	0.17448
4025.08289	0.16982
4023.15425	0.16710
4021.22560	0.16659
4019.29696	0.16788
4017.36831	0.17016
4015.43967	0.17270
4013.51102	0.17518
4011.58237	0.17740
4009.65373	0.17898
4007.72508	0.17954
4005.79644	0.17904
4003.86779	0.17780
4001.93915	0.17625
4000.01050	0.17486
3998.08186	0.17407
3996.15321	0.17402
3994.22457	0.17437
3992.29592	0.17469
3990.36728	0.17480
3988.43863	0.17473
3986.50998	0.17462
3984.58134	0.17456
3982.65269	0.17452
3980.72405	0.17433
3978.79540	0.17377
3976.86676	0.17265
3974.93811	0.17100
3973.00947	0.16905
3971.08082	0.16717
3969.15218	0.16562
3967.22353	0.16458
3965.29489	0.16414
3963.36624	0.16437
3961.43759	0.16528
3959.50895	0.16683
3957.58030	0.16893
3955.65166	0.17145
3953.72301	0.17424
3951.79437	0.17714
3949.86572	0.17999
3947.93708	0.18259
3946.00843	0.18463
3944.07979	0.18579
3942.15114	0.18587
3940.22250	0.18496
3938.29385	0.18347
3936.36521	0.18199
3934.43656	0.18108
3932.50791	0.18099
3930.57927	0.18157
3928.65062	0.18238
3926.72198	0.18292
3924.79333	0.18275
3922.86469	0.18159
3920.93604	0.17932
3919.00740	0.17611
3917.07875	0.17242
3915.15011	0.16892
3913.22146	0.16642
3911.29282	0.16561
3909.36417	0.16683
3907.43552	0.16989
3905.50688	0.17416
3903.57823	0.17879
3901.64959	0.18291
3899.72094	0.18583
3897.79230	0.18716
3895.86365	0.18693
3893.93501	0.18556
3892.00636	0.18368
3890.07772	0.18200
3888.14907	0.18104
3886.22043	0.18094
3884.29178	0.18141
3882.36313	0.18196
3880.43449	0.18218
3878.50584	0.18183
3876.57720	0.18093
3874.64855	0.17969
3872.71991	0.17836
3870.79126	0.17713
3868.86262	0.17614
3866.93397	0.17571
3865.00533	0.17630
3863.07668	0.17819
3861.14804	0.18124
3859.21939	0.18479
3857.29074	0.18777
3855.36210	0.18906
3853.43345	0.18801
3851.50481	0.18498
3849.57616	0.18125
3847.64752	0.17836
3845.71887	0.17739
3843.79023	0.17853
3841.86158	0.18104
3839.93294	0.18355
3838.00429	0.18473
3836.07565	0.18394
3834.14700	0.18158
3832.21835	0.17879
3830.28971	0.17690
3828.36106	0.17686
3826.43242	0.17886
3824.50377	0.18214
3822.57513	0.18518
3820.64648	0.18651
3818.71784	0.18531
3816.78919	0.18185
3814.86055	0.17737
3812.93190	0.17363
3811.00326	0.17218
3809.07461	0.17362
3807.14597	0.17735
3805.21732	0.18193
3803.28867	0.18577
3801.36003	0.18772
3799.43138	0.18736
3797.50274	0.18503
3795.57409	0.18160
3793.64545	0.17810
3791.71680	0.17540
3789.78816	0.17409
3787.85951	0.17434
3785.93087	0.17587
3784.00222	0.17794
3782.07358	0.17971
3780.14493	0.18062
3778.21628	0.18054
3776.28764	0.17973
3774.35899	0.17860
3772.43035	0.17739
3770.50170	0.17613
3768.57306	0.17475
3766.64441	0.17331
3764.71577	0.17225
3762.78712	0.17220
3760.85848	0.17362
3758.92983	0.17652
3757.00119	0.18042
3755.07254	0.18458
3753.14389	0.18832
3751.21525	0.19113
3749.28660	0.19286
3747.35796	0.19363
3745.42931	0.19364
3743.50067	0.19303
3741.57202	0.19194
3739.64338	0.19052
3737.71473	0.18897
3735.78609	0.18746
3733.85744	0.18620
3731.92880	0.18535
3730.00015	0.18492
3728.07150	0.18474
3726.14286	0.18455
3724.21421	0.18416
3722.28557	0.18363
3720.35692	0.18323
3718.42828	0.18353
3716.49963	0.18507
3714.57099	0.18810
3712.64234	0.19235
3710.71370	0.19710
3708.78505	0.20139
3706.85641	0.20435
3704.92776	0.20553
3702.99911	0.20519
3701.07047	0.20412
3699.14182	0.20338
3697.21318	0.20376
3695.28453	0.20556
3693.35589	0.20849
3691.42724	0.21182
3689.49860	0.21486
3687.56995	0.21739
3685.64131	0.21978
3683.71266	0.22275
3681.78402	0.22700
3679.85537	0.23288
3677.92673	0.24014
3675.99808	0.24800
3674.06943	0.25549
3672.14079	0.26185
3670.21214	0.26680
3668.28350	0.27057
3666.35485	0.27384
3664.42621	0.27756
3662.49756	0.28267
3660.56892	0.28973
3658.64027	0.29883
3656.71163	0.30961
3654.78298	0.32136
3652.85434	0.33336
3650.92569	0.34511
3648.99704	0.35654
3647.06840	0.36784
3645.13975	0.37927
3643.21111	0.39105
3641.28246	0.40325
3639.35382	0.41578
3637.42517	0.42843
3635.49653	0.44100
3633.56788	0.45342
3631.63924	0.46576
3629.71059	0.47833
3627.78195	0.49155
3625.85330	0.50590
3623.92465	0.52159
3621.99601	0.53839
3620.06736	0.55559
3618.13872	0.57224
3616.21007	0.58738
3614.28143	0.60047
3612.35278	0.61156
3610.42414	0.62149
3608.49549	0.63158
3606.56685	0.64320
3604.63820	0.65731
3602.70956	0.67413
3600.78091	0.69302
3598.85226	0.71281
3596.92362	0.73220
3594.99497	0.75019
3593.06633	0.76624
3591.13768	0.78023
3589.20904	0.79243
3587.28039	0.80345
3585.35175	0.81418
3583.42310	0.82555
3581.49446	0.83838
3579.56581	0.85312
3577.63717	0.86982
3575.70852	0.88808
3573.77988	0.90738
3571.85123	0.92728
3569.92258	0.94751
3567.99394	0.96773
3566.06529	0.98750
3564.13665	1.00631
3562.20800	1.02383
3560.27936	1.03990
3558.35071	1.05458
3556.42207	1.06810
3554.49342	1.08084
3552.56478	1.09318
3550.63613	1.10544
3548.70749	1.11792
3546.77884	1.13085
3544.85019	1.14432
3542.92155	1.15825
3540.99290	1.17257
3539.06426	1.18738
3537.13561	1.20302
3535.20697	1.21991
3533.27832	1.23823
3531.34968	1.25771
3529.42103	1.27759
3527.49239	1.29687
3525.56374	1.31472
3523.63510	1.33080
3521.70645	1.34535
3519.77780	1.35900
3517.84916	1.37248
3515.92051	1.38622
3513.99187	1.40027
3512.06322	1.41434
3510.13458	1.42810
3508.20593	1.44142
3506.27729	1.45446
3504.34864	1.46759
3502.42000	1.48130
3500.49135	1.49589
3498.56271	1.51120
3496.63406	1.52663
3494.70541	1.54148
3492.77677	1.55521
3490.84812	1.56770
3488.91948	1.57922
3486.99083	1.59042
3485.06219	1.60198
3483.13354	1.61431
3481.20490	1.62739
3479.27625	1.64078
3477.34761	1.65381
3475.41896	1.66586
3473.49032	1.67650
3471.56167	1.68573
3469.63302	1.69405
3467.70438	1.70231
3465.77573	1.71136
3463.84709	1.72163
3461.91844	1.73305
3459.98980	1.74513
3458.06115	1.75719
3456.13251	1.76867
3454.20386	1.77925
3452.27522	1.78895
3450.34657	1.79795
3448.41793	1.80638
3446.48928	1.81438
3444.56064	1.82212
3442.63199	1.82983
3440.70334	1.83769
3438.77470	1.84580
3436.84605	1.85421
3434.91741	1.86289
3432.98876	1.87171
3431.06012	1.88049
3429.13147	1.88901
3427.20283	1.89709
3425.27418	1.90460
3423.34554	1.91153
3421.41689	1.91802
3419.48825	1.92423
3417.55960	1.93022
3415.63095	1.93593
3413.70231	1.94128
3411.77366	1.94630
3409.84502	1.95118
3407.91637	1.95618
3405.98773	1.96145
3404.05908	1.96689
3402.13044	1.97226
3400.20179	1.97723
3398.27315	1.98156
3396.34450	1.98512
3394.41586	1.98786
3392.48721	1.98969
3390.55856	1.99049
3388.62992	1.99025
3386.70127	1.98929
3384.77263	1.98827
3382.84398	1.98795
3380.91534	1.98887
3378.98669	1.99106
3377.05805	1.99403
3375.12940	1.99697
3373.20076	1.99910
3371.27211	2.00000
3369.34347	1.99969
3367.41482	1.99848
3365.48617	1.99676
3363.55753	1.99482
3361.62888	1.99283
3359.70024	1.99090
3357.77159	1.98910
3355.84295	1.98743
3353.91430	1.98587
3351.98566	1.98448
3350.05701	1.98334
3348.12837	1.98256
3346.19972	1.98219
3344.27108	1.98215
3342.34243	1.98215
3340.41378	1.98183
3338.48514	1.98094
3336.55649	1.97944
3334.62785	1.97748
3332.69920	1.97522
3330.77056	1.97269
3328.84191	1.96977
3326.91327	1.96640
3324.98462	1.96269
3323.05598	1.95901
3321.12733	1.95593
3319.19869	1.95390
3317.27004	1.95308
3315.34140	1.95326
3313.41275	1.95395
3311.48410	1.95469
3309.55546	1.95513
3307.62681	1.95514
3305.69817	1.95475
3303.76952	1.95401
3301.84088	1.95296
3299.91223	1.95161
3297.98359	1.94998
3296.05494	1.94824
3294.12630	1.94658
3292.19765	1.94512
3290.26901	1.94386
3288.34036	1.94258
3286.41171	1.94093
3284.48307	1.93853
3282.55442	1.93523
3280.62578	1.93112
3278.69713	1.92650
3276.76849	1.92170
3274.83984	1.91700
3272.91120	1.91255
3270.98255	1.90833
3269.05391	1.90418
3267.12526	1.89989
3265.19662	1.89523
3263.26797	1.89001
3261.33932	1.88405
3259.41068	1.87733
3257.48203	1.86999
3255.55339	1.86230
3253.62474	1.85465
3251.69610	1.84742
3249.76745	1.84084
3247.83881	1.83481
3245.91016	1.82890
3243.98152	1.82255
3242.05287	1.81534
3240.12423	1.80725
3238.19558	1.79876
3236.26693	1.79071
3234.33829	1.78386
3232.40964	1.77848
3230.48100	1.77426
3228.55235	1.77051
3226.62371	1.76648
3224.69506	1.76157
3222.76642	1.75544
3220.83777	1.74802
3218.90913	1.73935
3216.98048	1.72962
3215.05184	1.71926
3213.12319	1.70893
3211.19455	1.69936
3209.26590	1.69098
3207.33725	1.68366
3205.40861	1.67685
3203.47996	1.66982
3201.55132	1.66211
3199.62267	1.65373
3197.69403	1.64513
3195.76538	1.63699
3193.83674	1.62977
3191.90809	1.62356
3189.97945	1.61795
3188.05080	1.61221
3186.12216	1.60556
3184.19351	1.59752
3182.26486	1.58810
3180.33622	1.57782
3178.40757	1.56750
3176.47893	1.55781
3174.55028	1.54892
3172.62164	1.54047
3170.69299	1.53182
3168.76435	1.52250
3166.83570	1.51248
3164.90706	1.50214
3162.97841	1.49202
3161.04977	1.48245
3159.12112	1.47344
3157.19247	1.46480
3155.26383	1.45635
3153.33518	1.44808
3151.40654	1.44019
3149.47789	1.43292
3147.54925	1.42640
3145.62060	1.42064
3143.69196	1.41548
3141.76331	1.41059
3139.83467	1.40551
3137.90602	1.39979
3135.97738	1.39312
3134.04873	1.38551
3132.12008	1.37734
3130.19144	1.36922
3128.26279	1.36174
3126.33415	1.35517
3124.40550	1.34939
3122.47686	1.34404
3120.54821	1.33874
3118.61957	1.33322
3116.69092	1.32735
3114.76228	1.32106
3112.83363	1.31422
3110.90499	1.30679
3108.97634	1.29889
3107.04769	1.29093
3105.11905	1.28339
3103.19040	1.27666
3101.26176	1.27079
3099.33311	1.26547
3097.40447	1.26011
3095.47582	1.25419
3093.54718	1.24748
3091.61853	1.24011
3089.68989	1.23248
3087.76124	1.22515
3085.83260	1.21861
3083.90395	1.21317
3081.97531	1.20884
3080.04666	1.20534
3078.11801	1.20209
3076.18937	1.19834
3074.26072	1.19341
3072.33208	1.18686
3070.40343	1.17866
3068.47479	1.16924
3066.54614	1.15924
3064.61750	1.14931
3062.68885	1.13990
3060.76021	1.13124
3058.83156	1.12331
3056.90292	1.11597
3054.97427	1.10909
3053.04562	1.10252
3051.11698	1.09610
3049.18833	1.08959
3047.25969	1.08287
3045.33104	1.07603
3043.40240	1.06928
3041.47375	1.06286
3039.54511	1.05706
3037.61646	1.05202
3035.68782	1.04769
3033.75917	1.04384
3031.83053	1.04015
3029.90188	1.03620
3027.97323	1.03158
3026.04459	1.02606
3024.11594	1.01970
3022.18730	1.01285
3020.25865	1.00597
3018.33001	0.99949
3016.40136	0.99361
3014.47272	0.98826
3012.54407	0.98327
3010.61543	0.97858
3008.68678	0.97420
3006.75814	0.97015
3004.82949	0.96639
3002.90084	0.96298
3000.97220	0.96015
2999.04355	0.95828
2997.11491	0.95773
2995.18626	0.95854
2993.25762	0.96014
2991.32897	0.96154
2989.40033	0.96196
2987.47168	0.96147
2985.54304	0.96087
2983.61439	0.96115
2981.68575	0.96292
2979.75710	0.96599
2977.82845	0.96932
2975.89981	0.97183
2973.97116	0.97337
2972.04252	0.97482
2970.11387	0.97731
2968.18523	0.98143
2966.25658	0.98690
2964.32794	0.99260
2962.39929	0.99706
2960.47065	0.99913
2958.54200	0.99856
2956.61336	0.99591
2954.68471	0.99209
2952.75607	0.98809
2950.82742	0.98474
2948.89877	0.98276
2946.97013	0.98262
2945.04148	0.98435
2943.11284	0.98756
2941.18419	0.99170
2939.25555	0.99627
2937.32690	1.00098
2935.39826	1.00574
2933.46961	1.01049
2931.54097	1.01496
2929.61232	1.01858
2927.68368	1.02048
2925.75503	1.01977
2923.82638	1.01579
2921.89774	1.00830
2919.96909	0.99747
2918.04045	0.98378
2916.11180	0.96795
2914.18316	0.95095
2912.25451	0.93394
2910.32587	0.91801
2908.39722	0.90399
2906.46858	0.89218
2904.53993	0.88241
2902.61129	0.87415
2900.68264	0.86677
2898.75399	0.85994
2896.82535	0.85375
2894.89670	0.84838
2892.96806	0.84379
2891.03941	0.83959
2889.11077	0.83527
2887.18212	0.83041
2885.25348	0.82502
2883.32483	0.81961
2881.39619	0.81484
2879.46754	0.81105
2877.53890	0.80812
2875.61025	0.80565
2873.68160	0.80307
2871.75296	0.79989
2869.82431	0.79601
2867.89567	0.79173
2865.96702	0.78759
2864.03838	0.78429
2862.10973	0.78265
2860.18109	0.78324
2858.25244	0.78583
2856.32380	0.78902
2854.39515	0.79077
2852.46651	0.78905
2850.53786	0.78259
2848.60922	0.77148
2846.68057	0.75735
2844.75192	0.74260
2842.82328	0.72922
2840.89463	0.71810
2838.96599	0.70911
2837.03734	0.70139
2835.10870	0.69391
2833.18005	0.68611
2831.25141	0.67820
2829.32276	0.67074
2827.39412	0.66416
2825.46547	0.65870
2823.53683	0.65449
2821.60818	0.65137
2819.67953	0.64891
2817.75089	0.64672
2815.82224	0.64446
2813.89360	0.64175
2811.96495	0.63828
2810.03631	0.63417
2808.10766	0.62981
2806.17902	0.62562
2804.25037	0.62177
2802.32173	0.61830
2800.39308	0.61518
2798.46444	0.61231
2796.53579	0.60965
2794.60714	0.60719
2792.67850	0.60483
2790.74985	0.60220
2788.82121	0.59879
2786.89256	0.59432
2784.96392	0.58908
2783.03527	0.58383
2781.10663	0.57951
2779.17798	0.57677
2777.24934	0.57572
2775.32069	0.57572
2773.39205	0.57570
2771.46340	0.57468
2769.53475	0.57238
2767.60611	0.56918
2765.67746	0.56581
2763.74882	0.56296
2761.82017	0.56107
2759.89153	0.56012
2757.96288	0.55968
2756.03424	0.55924
2754.10559	0.55847
2752.17695	0.55709
2750.24830	0.55473
2748.31966	0.55121
2746.39101	0.54674
2744.46236	0.54193
2742.53372	0.53753
2740.60507	0.53413
2738.67643	0.53202
2736.74778	0.53087
2734.81914	0.52987
2732.89049	0.52840
2730.96185	0.52643
2729.03320	0.52436
2727.10456	0.52252
2725.17591	0.52102
2723.24727	0.51980
2721.31862	0.51859
2719.38998	0.51697
2717.46133	0.51479
2715.53268	0.51240
2713.60404	0.51028
2711.67539	0.50862
2709.74675	0.50738
2707.81810	0.50633
2705.88946	0.50499
2703.96081	0.50285
2702.03217	0.49979
2700.10352	0.49628
2698.17488	0.49313
2696.24623	0.49100
2694.31759	0.48996
2692.38894	0.48942
2690.46029	0.48843
2688.53165	0.48627
2686.60300	0.48299
2684.67436	0.47936
2682.74571	0.47646
2680.81707	0.47504
2678.88842	0.47495
2676.95978	0.47528
2675.03113	0.47495
2673.10249	0.47339
2671.17384	0.47066
2669.24520	0.46733
2667.31655	0.46417
2665.38790	0.46177
2663.45926	0.46024
2661.53061	0.45927
2659.60197	0.45848
2657.67332	0.45760
2655.74468	0.45634
2653.81603	0.45461
2651.88739	0.45251
2649.95874	0.45024
2648.03010	0.44789
2646.10145	0.44555
2644.17281	0.44330
2642.24416	0.44096
2640.31551	0.43822
2638.38687	0.43499
2636.45822	0.43149
2634.52958	0.42801
2632.60093	0.42492
2630.67229	0.42281
2628.74364	0.42204
2626.81500	0.42233
2624.88635	0.42305
2622.95771	0.42373
2621.02906	0.42413
2619.10042	0.42406
2617.17177	0.42352
2615.24312	0.42274
2613.31448	0.42177
2611.38583	0.42024
2609.45719	0.41784
2607.52854	0.41477
2605.59990	0.41160
2603.67125	0.40881
2601.74261	0.40664
2599.81396	0.40514
2597.88532	0.40404
2595.95667	0.40283
2594.02803	0.40124
2592.09938	0.39945
2590.17074	0.39766
2588.24209	0.39571
2586.31344	0.39341
2584.38480	0.39097
2582.45615	0.38874
2580.52751	0.38711
2578.59886	0.38653
2576.67022	0.38736
2574.74157	0.38910
2572.81293	0.39050
2570.88428	0.39053
2568.95564	0.38912
2567.02699	0.38697
2565.09835	0.38506
2563.16970	0.38436
2561.24105	0.38534
2559.31241	0.38744
2557.38376	0.38913
2555.45512	0.38896
2553.52647	0.38663
2551.59783	0.38301
2549.66918	0.37938
2547.74054	0.37681
2545.81189	0.37586
2543.88325	0.37632
2541.95460	0.37721
2540.02596	0.37746
2538.09731	0.37696
2536.16866	0.37651
2534.24002	0.37686
2532.31137	0.37806
2530.38273	0.37978
2528.45408	0.38152
2526.52544	0.38266
2524.59679	0.38277
2522.66815	0.38193
2520.73950	0.38037
2518.81086	0.37811
2516.88221	0.37516
2514.95357	0.37201
2513.02492	0.36966
2511.09627	0.36912
2509.16763	0.37075
2507.23898	0.37373
2505.31034	0.37637
2503.38169	0.37715
2501.45305	0.37577
2499.52440	0.37320
2497.59576	0.37130
2495.66711	0.37182
2493.73847	0.37506
2491.80982	0.37945
2489.88118	0.38263
2487.95253	0.38291
2486.02389	0.37986
2484.09524	0.37456
2482.16659	0.36924
2480.23795	0.36597
2478.30930	0.36533
2476.38066	0.36648
2474.45201	0.36810
2472.52337	0.36918
2470.59472	0.36931
2468.66608	0.36885
2466.73743	0.36873
2464.80879	0.36954
2462.88014	0.37101
2460.95150	0.37240
2459.02285	0.37309
2457.09420	0.37284
2455.16556	0.37190
2453.23691	0.37089
2451.30827	0.37057
2449.37962	0.37132
2447.45098	0.37289
2445.52233	0.37468
2443.59369	0.37600
2441.66504	0.37621
2439.73640	0.37494
2437.80775	0.37227
2435.87911	0.36868
2433.95046	0.36502
2432.02181	0.36224
2430.09317	0.36113
2428.16452	0.36205
2426.23588	0.36454
2424.30723	0.36741
2422.37859	0.36931
2420.44994	0.36937
2418.52130	0.36753
2416.59265	0.36453
2414.66401	0.36156
2412.73536	0.35973
2410.80672	0.35956
2408.87807	0.36074
2406.94942	0.36242
2405.02078	0.36376
2403.09213	0.36428
2401.16349	0.36391
2399.23484	0.36291
2397.30620	0.36174
2395.37755	0.36080
2393.44891	0.36031
2391.52026	0.36032
2389.59162	0.36077
2387.66297	0.36149
2385.73433	0.36205
2383.80568	0.36173
2381.87703	0.35976
2379.94839	0.35556
2378.01974	0.34901
2376.09110	0.34050
2374.16245	0.33107
2372.23381	0.32231
2370.30516	0.31610
2368.37652	0.31403
2366.44787	0.31698
2364.51923	0.32458
2362.59058	0.33508
2360.66194	0.34576
2358.73329	0.35402
2356.80465	0.35836
2354.87600	0.35881
2352.94735	0.35660
2351.01871	0.35343
2349.09006	0.35057
2347.16142	0.34835
2345.23277	0.34628
2343.30413	0.34376
2341.37548	0.34060
2339.44684	0.33716
2337.51819	0.33421
2335.58955	0.33248
2333.66090	0.33238
2331.73226	0.33380
2329.80361	0.33614
2327.87496	0.33866
2325.94632	0.34078
2324.01767	0.34228
2322.08903	0.34335
2320.16038	0.34435
2318.23174	0.34563
2316.30309	0.34728
2314.37445	0.34902
2312.44580	0.35041
2310.51716	0.35114
2308.58851	0.35117
2306.65987	0.35064
2304.73122	0.34965
2302.80257	0.34831
2300.87393	0.34679
2298.94528	0.34535
2297.01664	0.34435
2295.08799	0.34416
2293.15935	0.34482
2291.23070	0.34583
2289.30206	0.34619
2287.37341	0.34496
2285.44477	0.34170
2283.51612	0.33665
2281.58748	0.33058
2279.65883	0.32443
2277.73018	0.31898
2275.80154	0.31465
2273.87289	0.31172
2271.94425	0.31044
2270.01560	0.31084
2268.08696	0.31231
2266.15831	0.31350
2264.22967	0.31293
2262.30102	0.30982
2260.37238	0.30500
2258.44373	0.30065
2256.51509	0.29940
2254.58644	0.30287
2252.65779	0.31032
2250.72915	0.31872
2248.80050	0.32450
2246.87186	0.32599
2244.94321	0.32480
2243.01457	0.32430
2241.08592	0.32735
2239.15728	0.33445
2237.22863	0.34299
2235.29999	0.34866
2233.37134	0.34820
2231.44270	0.34172
2229.51405	0.33277
2227.58541	0.32532
2225.65676	0.32047
2223.72811	0.31593
2221.79947	0.30869
2219.87082	0.29799
2217.94218	0.28590
2216.01353	0.27605
2214.08489	0.27163
2212.15624	0.27327
2210.22760	0.27783
2208.29895	0.28034
2206.37031	0.27779
2204.44166	0.27095
2202.51302	0.26264
2200.58437	0.25538
2198.65572	0.24972
2196.72708	0.24378
2194.79843	0.23450
2192.86979	0.22014
2190.94114	0.20239
2189.01250	0.18660
2187.08385	0.17902
2185.15521	0.18322
2183.22656	0.19804
2181.29792	0.21755
2179.36927	0.23342
2177.44063	0.23901
2175.51198	0.23286
2173.58333	0.21851
2171.65469	0.19983
2169.72604	0.17765
2167.79740	0.15104
2165.86875	0.11919
2163.94011	0.08258
2162.01146	0.04487
2160.08282	0.01422
2158.15417	0.00000
2156.22553	0.00654
2154.29688	0.03113
2152.36824	0.06712
2150.43959	0.10694
2148.51094	0.14414
2146.58230	0.17560
2144.65365	0.20207
2142.72501	0.22588
2140.79636	0.24799
2138.86772	0.26743
2136.93907	0.28247
2135.01043	0.29181
2133.08178	0.29528
2131.15314	0.29367
2129.22449	0.28761
2127.29585	0.27738
2125.36720	0.26397
2123.43856	0.24988
2121.50991	0.23846
2119.58126	0.23267
2117.65262	0.23402
2115.72397	0.24159
2113.79533	0.25233
2111.86668	0.26271
2109.93804	0.27078
2108.00939	0.27632
2106.08075	0.27962
2104.15210	0.28077
2102.22346	0.27978
2100.29481	0.27711
2098.36617	0.27397
2096.43752	0.27182
2094.50887	0.27177
2092.58023	0.27364
2090.65158	0.27560
2088.72294	0.27492
2086.79429	0.26952
2084.86565	0.25946
2082.93700	0.24714
2081.00836	0.23605
2079.07971	0.22931
2077.15107	0.22833
2075.22242	0.23242
2073.29378	0.23932
2071.36513	0.24646
2069.43648	0.25207
2067.50784	0.25576
2065.57919	0.25821
2063.65055	0.26025
2061.72190	0.26204
2059.79326	0.26280
2057.86461	0.26116
2055.93597	0.25600
2054.00732	0.24732
2052.07868	0.23669
2050.15003	0.22662
2048.22139	0.21925
2046.29274	0.21528
2044.36409	0.21360
2042.43545	0.21163
2040.50680	0.20654
2038.57816	0.19736
2036.64951	0.18625
2034.72087	0.17765
2032.79222	0.17574
2030.86358	0.18215
2028.93493	0.19502
2027.00629	0.20948
2025.07764	0.21963
2023.14900	0.22168
2021.22035	0.21611
2019.29170	0.20689
2017.36306	0.19874
2015.43441	0.19461
2013.50577	0.19500
2011.57712	0.19876
2009.64848	0.20465
2007.71983	0.21244
2005.79119	0.22263
2003.86254	0.23500
2001.93390	0.24743
2000.00525	0.25611
1998.07661	0.25722
1996.14796	0.24911
1994.21932	0.23364
1992.29067	0.21578
1990.36202	0.20151
1988.43338	0.19506
1986.50473	0.19692
1984.57609	0.20376
1982.64744	0.21010
1980.71880	0.21065
1978.79015	0.20253
1976.86151	0.18690
1974.93286	0.16771
1973.00422	0.15024
1971.07557	0.13915
1969.14693	0.13748
1967.21828	0.14664
1965.28963	0.16627
1963.36099	0.19373
1961.43234	0.22397
1959.50370	0.25062
1957.57505	0.26788
1955.64641	0.27257
1953.71776	0.26556
1951.78912	0.25177
1949.86047	0.23820
1947.93183	0.23091
1946.00318	0.23265
1944.07454	0.24236
1942.14589	0.25630
1940.21724	0.26998
1938.28860	0.27979
1936.35995	0.28383
1934.43131	0.28185
1932.50266	0.27504
1930.57402	0.26551
1928.64537	0.25577
1926.71673	0.24797
1924.78808	0.24350
1922.85944	0.24270
1920.93079	0.24469
1919.00215	0.24784
1917.07350	0.25059
1915.14485	0.25203
1913.21621	0.25202
1911.28756	0.25087
1909.35892	0.24914
1907.43027	0.24729
1905.50163	0.24570
1903.57298	0.24473
1901.64434	0.24479
1899.71569	0.24612
1897.78705	0.24871
1895.85840	0.25217
1893.92976	0.25581
1892.00111	0.25885
1890.07246	0.26083
1888.14382	0.26189
1886.21517	0.26269
1884.28653	0.26400
1882.35788	0.26624
1880.42924	0.26903
1878.50059	0.27133
1876.57195	0.27193
1874.64330	0.27027
1872.71466	0.26678
1870.78601	0.26273
1868.85737	0.25957
1866.92872	0.25827
1865.00008	0.25880
1863.07143	0.26037
1861.14278	0.26197
1859.21414	0.26301
1857.28549	0.26345
1855.35685	0.26362
1853.42820	0.26390
1851.49956	0.26444
1849.57091	0.26509
1847.64227	0.26558
1845.71362	0.26576
1843.78498	0.26577
1841.85633	0.26591
1839.92769	0.26650
1837.99904	0.26770
1836.07039	0.26937
1834.14175	0.27113
1832.21310	0.27254
1830.28446	0.27332
1828.35581	0.27344
1826.42717	0.27310
1824.49852	0.27261
1822.56988	0.27220
1820.64123	0.27199
1818.71259	0.27191
1816.78394	0.27187
1814.85530	0.27184
1812.92665	0.27199
1810.99800	0.27249
1809.06936	0.27346
1807.14071	0.27484
1805.21207	0.27639
1803.28342	0.27785
1801.35478	0.27901
1799.42613	0.27988
1797.49749	0.28064
1795.56884	0.28159
1793.64020	0.28297
1791.71155	0.28483
1789.78291	0.28702
1787.85426	0.28935
1785.92561	0.29169
1783.99697	0.29406
1782.06832	0.29665
1780.13968	0.29965
1778.21103	0.30313
1776.28239	0.30688
1774.35374	0.31055
1772.42510	0.31380
1770.49645	0.31652
1768.56781	0.31896
1766.63916	0.32155
1764.71052	0.32468
1762.78187	0.32857
1760.85322	0.33328
1758.92458	0.33873
1756.99593	0.34491
1755.06729	0.35192
1753.13864	0.35997
1751.21000	0.36917
1749.28135	0.37944
1747.35271	0.39055
1745.42406	0.40221
1743.49542	0.41412
1741.56677	0.42586
1739.63813	0.43692
1737.70948	0.44676
1735.78084	0.45493
1733.85219	0.46127
1731.92354	0.46621
1729.99490	0.47077
1728.06625	0.47627
1726.13761	0.48376
1724.20896	0.49359
1722.28032	0.50531
1720.35167	0.51783
1718.42303	0.53000
1716.49438	0.54106
1714.56574	0.55106
1712.63709	0.56084
1710.70845	0.57163
1708.77980	0.58470
1706.85115	0.60095
1704.92251	0.62065
1702.99386	0.64326
1701.06522	0.66767
1699.13657	0.69259
1697.20793	0.71711
1695.27928	0.74110
1693.35064	0.76521
1691.42199	0.79041
1689.49335	0.81742
1687.56470	0.84626
1685.63606	0.87620
1683.70741	0.90622
1681.77876	0.93555
1679.85012	0.96406
1677.92147	0.99224
1675.99283	1.02073
1674.06418	1.05005
1672.13554	1.08034
1670.20689	1.11135
1668.27825	1.14255
1666.34960	1.17341
1664.42096	1.20360
1662.49231	1.23287
1660.56367	1.26095
1658.63502	1.28747
1656.70637	1.31193
1654.77773	1.33366
1652.84908	1.35194
1650.92044	1.36638
1648.99179	1.37717
1647.06315	1.38504
1645.13450	1.39099
1643.20586	1.39590
1641.27721	1.40018
1639.34857	1.40356
1637.41992	1.40519
1635.49128	1.40406
1633.56263	1.39941
1631.63399	1.39105
1629.70534	1.37938
1627.77669	1.36519
1625.84805	1.34948
1623.91940	1.33324
1621.99076	1.31723
1620.06211	1.30202
1618.13347	1.28791
1616.20482	1.27511
1614.27618	1.26373
1612.34753	1.25382
1610.41889	1.24531
1608.49024	1.23805
1606.56160	1.23168
1604.63295	1.22571
1602.70430	1.21958
1600.77566	1.21279
1598.84701	1.20494
1596.91837	1.19579
1594.98972	1.18523
1593.06108	1.17330
1591.13243	1.16020
1589.20379	1.14635
1587.27514	1.13235
1585.34650	1.11894
1583.41785	1.10672
1581.48921	1.09601
1579.56056	1.08671
1577.63191	1.07837
1575.70327	1.07035
1573.77462	1.06219
1571.84598	1.05388
1569.91733	1.04586
1567.98869	1.03878
1566.06004	1.03302
1564.13140	1.02840
1562.20275	1.02403
1560.27411	1.01858
1558.34546	1.01077
1556.41682	1.00003
1554.48817	0.98664
1552.55952	0.97168
1550.63088	0.95644
1548.70223	0.94187
1546.77359	0.92818
1544.84494	0.91485
1542.91630	0.90092
1540.98765	0.88554
1539.05901	0.86845
1537.13036	0.85019
1535.20172	0.83198
1533.27307	0.81525
1531.34443	0.80125
1529.41578	0.79070
1527.48713	0.78360
1525.55849	0.77917
1523.62984	0.77611
1521.70120	0.77293
1519.77255	0.76831
1517.84391	0.76140
1515.91526	0.75190
1513.98662	0.73996
1512.05797	0.72596
1510.12933	0.71029
1508.20068	0.69328
1506.27204	0.67520
1504.34339	0.65645
1502.41475	0.63765
1500.48610	0.61951
1498.55745	0.60259
1496.62881	0.58722
1494.70016	0.57350
1492.77152	0.56137
1490.84287	0.55072
1488.91423	0.54161
1486.98558	0.53433
1485.05694	0.52948
1483.12829	0.52782
1481.19965	0.53005
1479.27100	0.53663
1477.34236	0.54748
1475.41371	0.56192
1473.48506	0.57870
1471.55642	0.59632
1469.62777	0.61344
1467.69913	0.62909
1465.77048	0.64270
1463.84184	0.65393
1461.91319	0.66255
1459.98455	0.66831
1458.05590	0.67103
1456.12726	0.67067
1454.19861	0.66758
1452.26997	0.66239
1450.34132	0.65592
1448.41267	0.64903
1446.48403	0.64254
1444.55538	0.63727
1442.62674	0.63390
1440.69809	0.63304
1438.76945	0.63506
1436.84080	0.64007
1434.91216	0.64792
1432.98351	0.65834
1431.05487	0.67107
1429.12622	0.68586
1427.19758	0.70238
1425.26893	0.72010
1423.34028	0.73826
1421.41164	0.75590
1419.48299	0.77215
1417.55435	0.78647
1415.62570	0.79878
1413.69706	0.80940
1411.76841	0.81878
1409.83977	0.82725
1407.91112	0.83480
1405.98248	0.84107
1404.05383	0.84553
1402.12519	0.84768
1400.19654	0.84732
1398.26789	0.84468
1396.33925	0.84036
1394.41060	0.83509
1392.48196	0.82954
1390.55331	0.82410
1388.62467	0.81876
1386.69602	0.81328
1384.76738	0.80735
1382.83873	0.80084
1380.91009	0.79382
1378.98144	0.78645
1377.05280	0.77891
1375.12415	0.77123
1373.19551	0.76329
1371.26686	0.75489
1369.33821	0.74594
1367.40957	0.73659
1365.48092	0.72721
1363.55228	0.71826
1361.62363	0.71012
1359.69499	0.70299
1357.76634	0.69673
1355.83770	0.69100
1353.90905	0.68536
1351.98041	0.67954
1350.05176	0.67350
1348.12312	0.66741
1346.19447	0.66156
1344.26582	0.65613
1342.33718	0.65114
1340.40853	0.64641
1338.47989	0.64166
1336.55124	0.63663
1334.62260	0.63127
1332.69395	0.62573
1330.76531	0.62034
1328.83666	0.61549
1326.90802	0.61148
1324.97937	0.60840
1323.05073	0.60605
1321.12208	0.60404
1319.19343	0.60193
1317.26479	0.59942
1315.33614	0.59645
1313.40750	0.59314
1311.47885	0.58977
1309.55021	0.58657
1307.62156	0.58370
1305.69292	0.58125
1303.76427	0.57931
1301.83563	0.57797
1299.90698	0.57733
1297.97834	0.57744
1296.04969	0.57827
1294.12104	0.57970
1292.19240	0.58160
1290.26375	0.58386
1288.33511	0.58640
1286.40646	0.58914
1284.47782	0.59203
1282.54917	0.59510
1280.62053	0.59847
1278.69188	0.60230
1276.76324	0.60669
1274.83459	0.61164
1272.90595	0.61690
1270.97730	0.62206
1269.04866	0.62669
1267.12001	0.63048
1265.19136	0.63332
1263.26272	0.63522
1261.33407	0.63625
1259.40543	0.63647
1257.47678	0.63594
1255.54814	0.63480
1253.61949	0.63334
1251.69085	0.63196
1249.76220	0.63113
1247.83356	0.63113
1245.90491	0.63195
1243.97627	0.63323
1242.04762	0.63444
1240.11897	0.63508
1238.19033	0.63489
1236.26168	0.63387
1234.33304	0.63230
1232.40439	0.63051
1230.47575	0.62874
1228.54710	0.62711
1226.61846	0.62557
1224.68981	0.62400
1222.76117	0.62225
1220.83252	0.62012
1218.90388	0.61742
1216.97523	0.61400
1215.04658	0.60992
1213.11794	0.60543
1211.18929	0.60103
1209.26065	0.59726
1207.33200	0.59459
1205.40336	0.59320
1203.47471	0.59298
1201.54607	0.59361
1199.61742	0.59478
1197.68878	0.59651
1195.76013	0.59917
1193.83149	0.60329
1191.90284	0.60932
1189.97419	0.61754
1188.04555	0.62805
1186.11690	0.64085
1184.18826	0.65593
1182.25961	0.67330
1180.33097	0.69282
1178.40232	0.71413
1176.47368	0.73668
1174.54503	0.76015
1172.61639	0.78460
1170.68774	0.81040
1168.75910	0.83780
1166.83045	0.86649
1164.90180	0.89567
1162.97316	0.92440
1161.04451	0.95210
1159.11587	0.97884
1157.18722	1.00518
1155.25858	1.03172
1153.32993	1.05854
1151.40129	1.08524
1149.47264	1.11129
1147.54400	1.13663
1145.61535	1.16198
1143.68671	1.18865
1141.75806	1.21817
1139.82942	1.25169
1137.90077	1.28949
1135.97212	1.33088
1134.04348	1.37442
1132.11483	1.41831
1130.18619	1.46072
1128.25754	1.50015
1126.32890	1.53568
1124.40025	1.56708
1122.47161	1.59465
1120.54296	1.61899
1118.61432	1.64092
1116.68567	1.66148
1114.75703	1.68158
1112.82838	1.70178
1110.89973	1.72221
1108.97109	1.74281
1107.04244	1.76339
1105.11380	1.78372
1103.18515	1.80370
1101.25651	1.82350
1099.32786	1.84341
1097.39922	1.86341
1095.47057	1.88303
1093.54193	1.90164
1091.61328	1.91880
1089.68464	1.93411
1087.75599	1.94698
1085.82734	1.95682
1083.89870	1.96312
1081.97005	1.96539
1080.04141	1.96325
1078.11276	1.95669
1076.18412	1.94616
1074.25547	1.93219
1072.32683	1.91496
1070.39818	1.89445
1068.46954	1.87076
1066.54089	1.84428
1064.61225	1.81551
1062.68360	1.78487
1060.75495	1.75265
1058.82631	1.71900
1056.89766	1.68401
1054.96902	1.64797
1053.04037	1.61158
1051.11173	1.57587
1049.18308	1.54184
1047.25444	1.51007
1045.32579	1.48077
1043.39715	1.45395
1041.46850	1.42943
1039.53986	1.40678
1037.61121	1.38520
1035.68256	1.36357
1033.75392	1.34068
1031.82527	1.31577
1029.89663	1.28873
1027.96798	1.26015
1026.03934	1.23105
1024.11069	1.20252
1022.18205	1.17534
1020.25340	1.14989
1018.32476	1.12639
1016.39611	1.10493
1014.46747	1.08538
1012.53882	1.06749
1010.61018	1.05114
1008.68153	1.03645
1006.75288	1.02384
1004.82424	1.01410
1002.89559	1.00806
1000.96695	1.00620
999.03830	1.00817
997.10966	1.01287
995.18101	1.01873
993.25237	1.02401
991.32372	1.02709
989.39508	1.02682
987.46643	1.02258
985.53779	1.01394
983.60914	1.00048
981.68049	0.98206
979.75185	0.95896
977.82320	0.93179
975.89456	0.90156
973.96591	0.86970
972.03727	0.83755
970.10862	0.80583
968.17998	0.77482
966.25133	0.74492
964.32269	0.71672
962.39404	0.69067
960.46540	0.66714
958.53675	0.64641
956.60810	0.62829
954.67946	0.61202
952.75081	0.59681
950.82217	0.58239
948.89352	0.56898
946.96488	0.55701
945.03623	0.54706
943.10759	0.53956
941.17894	0.53436
939.25030	0.53062
937.32165	0.52734
935.39301	0.52368
933.46436	0.51910
931.53571	0.51345
929.60707	0.50729
927.67842	0.50157
925.74978	0.49697
923.82113	0.49372
921.89249	0.49189
919.96384	0.49139
918.03520	0.49175
916.10655	0.49230
914.17791	0.49256
912.24926	0.49227
910.32062	0.49107
908.39197	0.48864
906.46333	0.48505
904.53468	0.48092
902.60603	0.47716
900.67739	0.47459
898.74874	0.47372
896.82010	0.47475
894.89145	0.47760
892.96281	0.48204
891.03416	0.48781
889.10552	0.49463
887.17687	0.50212
885.24823	0.50968
883.31958	0.51631
881.39094	0.52101
879.46229	0.52337
877.53364	0.52396
875.60500	0.52400
873.67635	0.52466
871.74771	0.52673
869.81906	0.53052
867.89042	0.53573
865.96177	0.54140
864.03313	0.54633
862.10448	0.54968
860.17584	0.55118
858.24719	0.55086
856.31855	0.54899
854.38990	0.54625
852.46125	0.54354
850.53261	0.54138
848.60396	0.53952
846.67532	0.53723
844.74667	0.53408
842.81803	0.53011
840.88938	0.52551
838.96074	0.52056
837.03209	0.51579
835.10345	0.51162
833.17480	0.50799
831.24616	0.50445
829.31751	0.50077
827.38886	0.49708
825.46022	0.49374
823.53157	0.49124
821.60293	0.49028
819.67428	0.49163
817.74564	0.49548
815.81699	0.50079
813.88835	0.50554
811.95970	0.50799
810.03106	0.50782
808.10241	0.50599
806.17377	0.50415
804.24512	0.50407
802.31647	0.50666
800.38783	0.51111
798.45918	0.51528
796.53054	0.51747
794.60189	0.51744
792.67325	0.51609
790.74460	0.51474
788.81596	0.51475
786.88731	0.51690
784.95867	0.52088
783.03002	0.52544
781.10138	0.52930
779.17273	0.53143
777.24409	0.53107
775.31544	0.52794
773.38679	0.52268
771.45815	0.51671
769.52950	0.51153
767.60086	0.50831
765.67221	0.50770
763.74357	0.50965
761.81492	0.51338
759.88628	0.51786
757.95763	0.52240
756.02899	0.52683
754.10034	0.53111
752.17170	0.53509
750.24305	0.53841
748.31440	0.54063
746.38576	0.54155
744.45711	0.54098
742.52847	0.53859
740.59982	0.53464
738.67118	0.53035
736.74253	0.52731
734.81389	0.52667
732.88524	0.52893
730.95660	0.53390
729.02795	0.54021
727.09931	0.54563
725.17066	0.54876
723.24201	0.55007
721.31337	0.55099
719.38472	0.55293
717.45608	0.55667
715.52743	0.56208
713.59879	0.56799
711.67014	0.57274
709.74150	0.57536
707.81285	0.57602
705.88421	0.57568
703.95556	0.57552
702.02692	0.57640
700.09827	0.57842
698.16962	0.58106
696.24098	0.58357
694.31233	0.58545
692.38369	0.58675
690.45504	0.58793
688.52640	0.58958
686.59775	0.59196
684.66911	0.59483
682.74046	0.59759
680.81182	0.59982
678.88317	0.60166
676.95453	0.60362
675.02588	0.60625
673.09723	0.60991
671.16859	0.61446
669.23994	0.61927
667.31130	0.62331
665.38265	0.62583
663.45401	0.62672
661.52536	0.62638
659.59672	0.62557
657.66807	0.62519
655.73943	0.62588
653.81078	0.62779
651.88214	0.63051
649.95349	0.63341
648.02485	0.63597
646.09620	0.63800
644.16755	0.63973
642.23891	0.64171
640.31026	0.64459
638.38162	0.64893
636.45297	0.65517
634.52433	0.66355
632.59568	0.67388
630.66704	0.68476
628.73839	0.69340
626.80975	0.69685
624.88110	0.69425
622.95246	0.68780
621.02381	0.68178
619.09516	0.68052
617.16652	0.68633
615.23787	0.69782
613.30923	0.71014
611.38058	0.71796
609.45194	0.71890
607.52329	0.71429
605.59465	0.70708
603.66600	0.69987
601.73736	0.69432
599.80871	0.69119
597.88007	0.69065
595.95142	0.69278
594.02277	0.69790
592.09413	0.70603
590.16548	0.71618
588.23684	0.72648
586.30819	0.73510
584.37955	0.74124
582.45090	0.74521
580.52226	0.74803
578.59361	0.75092
576.66497	0.75480
574.73632	0.76003
572.80768	0.76628
570.87903	0.77310
568.95038	0.78051
567.02174	0.78933
565.09309	0.80084
563.16445	0.81586
561.23580	0.83408
559.30716	0.85393
557.37851	0.87346
555.44987	0.89127
553.52122	0.90713
551.59258	0.92170
549.66393	0.93583
547.73529	0.94976
545.80664	0.96282
543.87800	0.97386
541.94935	0.98179
540.02070	0.98593
538.09206	0.98604
536.16341	0.98225
534.23477	0.97484
532.30612	0.96403
530.37748	0.95007
528.44883	0.93350
526.52019	0.91515
524.59154	0.89605
522.66290	0.87726
520.73425	0.85977
518.80561	0.84417
516.87696	0.83042
514.94831	0.81807
513.01967	0.80642
511.09102	0.79474
509.16238	0.78225
507.23373	0.76829
505.30509	0.75262
503.37644	0.73559
501.44780	0.71814
499.51915	0.70162
497.59051	0.68756
495.66186	0.67738
493.73322	0.67201
491.80457	0.67161
489.87592	0.67550
487.94728	0.68227
486.01863	0.68994
484.08999	0.69630
482.16134	0.69974
480.23270	0.69991
478.30405	0.69774
476.37541	0.69485
474.44676	0.69261
472.51812	0.69139
470.58947	0.69035
468.66083	0.68767
466.73218	0.68156
464.80353	0.67116
462.87489	0.65677
460.94624	0.63960
459.01760	0.62116
457.08895	0.60282
455.16031	0.58553
453.23166	0.56979
451.30302	0.55579
449.37437	0.54357
447.44573	0.53301
445.51708	0.52370
443.58844	0.51526
441.65979	0.50755
439.73114	0.50079
437.80250	0.49533
435.87385	0.49143
433.94521	0.48898
432.01656	0.48741
430.08792	0.48583
428.15927	0.48338
426.23063	0.47953
424.30198	0.47410
422.37334	0.46723
420.44469	0.45926
418.51605	0.45062
416.58740	0.44186
414.65876	0.43347
412.73011	0.42589
410.80146	0.41952
408.87282	0.41462
406.94417	0.41119
405.01553	0.40876
403.08688	0.40638
401.15824	0.40266
399.22959	0.39612
397.30095	0.38576
395.37230	0.37162
393.44366	0.35479
391.51501	0.33708
389.58637	0.32057
387.65772	0.30716
385.72907	0.29810
383.80043	0.29370
381.87178	0.29318
379.94314	0.29486
378.01449	0.29656
376.08585	0.29631
374.15720	0.29304
372.22856	0.28691
370.29991	0.27907
368.37127	0.27112
366.44262	0.26457
364.51398	0.26049
362.58533	0.25917
360.65668	0.25999
358.72804	0.26147
356.79939	0.26172
354.87075	0.25903
352.94210	0.25263
351.01346	0.24339
349.08481	0.23362
347.15617	0.22583
345.22752	0.22142
343.29888	0.21998
341.37023	0.21960
339.44159	0.21787
337.51294	0.21319
335.58429	0.20567
333.65565	0.19693
331.72700	0.18897
329.79836	0.18309
327.86971	0.17933
325.94107	0.17664
324.01242	0.17352
322.08378	0.16880
320.15513	0.16224
318.22649	0.15465
316.29784	0.14760
314.36920	0.14306
312.44055	0.14293
310.51190	0.14825
308.58326	0.15835
306.65461	0.17123
304.72597	0.18381
302.79732	0.19282
300.86868	0.19587
298.94003	0.19217
297.01139	0.18290
295.08274	0.17090
293.15410	0.15970
291.22545	0.15254
289.29681	0.15154
287.36816	0.15718
285.43952	0.16812
283.51087	0.18161
281.58222	0.19440
279.65358	0.20386
277.72493	0.20876
275.79629	0.20937
273.86764	0.20718
271.93900	0.20429
270.01035	0.20268
268.08171	0.20379
266.15306	0.20823
264.22442	0.21576
262.29577	0.22540
260.36713	0.23587
258.43848	0.24620
256.50983	0.25619
254.58119	0.26630
252.65254	0.27723
250.72390	0.28918
248.79525	0.30119
246.86661	0.31118
244.93796	0.31693
243.00932	0.31744
241.08067	0.31374
239.15203	0.30868
237.22338	0.30601
235.29474	0.30878
233.36609	0.31800
231.43744	0.33216
229.50880	0.34771
227.58015	0.36047
225.65151	0.36733
223.72286	0.36753
221.79422	0.36318
219.86557	0.35896
217.93693	0.36098
216.00828	0.37439
214.07964	0.40065
212.15099	0.43604
210.22235	0.47241
208.29370	0.49978
206.36505	0.51036
204.43641	0.50220
202.50776	0.48037
200.57912	0.45412
198.65047	0.43169
196.72183	0.41615
194.79318	0.40521
192.86454	0.39427
190.93589	0.38115
189.00725	0.36943
187.07860	0.36774
185.14996	0.38422
183.22131	0.41972
181.29267	0.46562
179.36402	0.50786
177.43537	0.53396
175.50673	0.53884
173.57808	0.52693
171.64944	0.50936
169.72079	0.49825
167.79215	0.50220
165.86350	0.52516
163.93486	0.56772
162.00621	0.63580
160.07757	0.71227
158.14892	0.78356
156.22028	0.83967
154.29163	0.83967
152.36298	0.83967
150.43434	0.83967
148.50569	0.83967
