4497.60101	0.07388
4495.67236	0.07388
4493.74372	0.07388
4491.81507	0.07388
4489.88643	0.07388
4487.95778	0.06969
4486.02914	0.06420
4484.10049	0.05903
4482.17185	0.05617
4480.24320	0.05706
4478.31455	0.06107
4476.38591	0.06654
4474.45726	0.07159
4472.52862	0.07501
4470.59997	0.07714
4468.67133	0.07940
4466.74268	0.08293
4464.81404	0.08739
4462.88539	0.09102
4460.95675	0.09172
4459.02810	0.08813
4457.09946	0.08054
4455.17081	0.07123
4453.24216	0.06356
4451.31352	0.06012
4449.38487	0.06147
4447.45623	0.06607
4445.52758	0.07131
4443.59894	0.07490
4441.67029	0.07583
4439.74165	0.07450
4437.81300	0.07209
4435.88436	0.06980
4433.95571	0.06849
4432.02707	0.06845
4430.09842	0.06970
4428.16978	0.07229
4426.24113	0.07621
4424.31248	0.08084
4422.38384	0.08486
4420.45519	0.08711
4418.52655	0.08743
4416.59790	0.08627
4414.66926	0.08402
4412.74061	0.08095
4410.81197	0.07739
4408.88332	0.07357
4406.95468	0.06962
4405.02603	0.06603
4403.09739	0.06373
4401.16874	0.06329
4399.24009	0.06415
4397.31145	0.06515
4395.38280	0.06559
4393.45416	0.06543
4391.52551	0.06506
4389.59687	0.06509
4387.66822	0.06615
4385.73958	0.06833
4383.81093	0.07108
4381.88229	0.07382
4379.95364	0.07628
4378.02500	0.07827
4376.09635	0.07945
4374.16770	0.07954
4372.23906	0.07843
4370.31041	0.07623
4368.38177	0.07345
4366.45312	0.07093
4364.52448	0.06902
4362.59583	0.06710
4360.66719	0.06432
4358.73854	0.06047
4356.80990	0.05619
4354.88125	0.05277
4352.95261	0.05189
4351.02396	0.05468
4349.09531	0.06050
4347.16667	0.06702
4345.23802	0.07198
4343.30938	0.07447
4341.38073	0.07482
4339.45209	0.07410
4337.52344	0.07367
4335.59480	0.07451
4333.66615	0.07660
4331.73751	0.07893
4329.80886	0.08024
4327.88022	0.07987
4325.95157	0.07810
4324.02292	0.07562
4322.09428	0.07318
4320.16563	0.07158
4318.23699	0.07140
4316.30834	0.07213
4314.37970	0.07217
4312.45105	0.07012
4310.52241	0.06591
4308.59376	0.06065
4306.66512	0.05619
4304.73647	0.05458
4302.80783	0.05691
4300.87918	0.06241
4298.95054	0.06883
4297.02189	0.07370
4295.09324	0.07526
4293.16460	0.07305
4291.23595	0.06827
4289.30731	0.06296
4287.37866	0.05868
4285.45002	0.05605
4283.52137	0.05516
4281.59273	0.05574
4279.66408	0.05699
4277.73544	0.05806
4275.80679	0.05873
4273.87815	0.05911
4271.94950	0.05899
4270.02085	0.05823
4268.09221	0.05744
4266.16356	0.05740
4264.23492	0.05819
4262.30627	0.05944
4260.37763	0.06087
4258.44898	0.06208
4256.52034	0.06233
4254.59169	0.06119
4252.66305	0.05910
4250.73440	0.05690
4248.80576	0.05527
4246.87711	0.05489
4244.94846	0.05632
4243.01982	0.05942
4241.09117	0.06313
4239.16253	0.06619
4237.23388	0.06793
4235.30524	0.06858
4233.37659	0.06882
4231.44795	0.06935
4229.51930	0.07051
4227.59066	0.07216
4225.66201	0.07368
4223.73337	0.07427
4221.80472	0.07351
4219.87607	0.07147
4217.94743	0.06860
4216.01878	0.06545
4214.09014	0.06258
4212.16149	0.06040
4210.23285	0.05916
4208.30420	0.05888
4206.37556	0.05932
4204.44691	0.06000
4202.51827	0.06054
4200.58962	0.06087
4198.66098	0.06095
4196.73233	0.06070
4194.80368	0.06017
4192.87504	0.05961
4190.94639	0.05920
4189.01775	0.05898
4187.08910	0.05904
4185.16046	0.05960
4183.23181	0.06078
4181.30317	0.06223
4179.37452	0.06325
4177.44588	0.06308
4175.51723	0.06124
4173.58859	0.05797
4171.65994	0.05433
4169.73130	0.05170
4167.80265	0.05097
4165.87400	0.05202
4163.94536	0.05401
4162.01671	0.05613
4160.08807	0.05810
4158.15942	0.06001
4156.23078	0.06200
4154.30213	0.06392
4152.37349	0.06514
4150.44484	0.06479
4148.51620	0.06258
4146.58755	0.05937
4144.65891	0.05665
4142.73026	0.05556
4140.80161	0.05645
4138.87297	0.05897
4136.94432	0.06234
4135.01568	0.06546
4133.08703	0.06750
4131.15839	0.06823
4129.22974	0.06783
4127.30110	0.06657
4125.37245	0.06475
4123.44381	0.06266
4121.51516	0.06044
4119.58652	0.05815
4117.65787	0.05602
4115.72922	0.05455
4113.80058	0.05425
4111.87193	0.05534
4109.94329	0.05764
4108.01464	0.06038
4106.08600	0.06264
4104.15735	0.06392
4102.22871	0.06434
4100.30006	0.06439
4098.37142	0.06448
4096.44277	0.06476
4094.51413	0.06521
4092.58548	0.06575
4090.65683	0.06646
4088.72819	0.06732
4086.79954	0.06780
4084.87090	0.06702
4082.94225	0.06429
4081.01361	0.05989
4079.08496	0.05526
4077.15632	0.05258
4075.22767	0.05372
4073.29903	0.05910
4071.37038	0.06720
4069.44174	0.07510
4067.51309	0.07996
4065.58444	0.08018
4063.65580	0.07610
4061.72715	0.06971
4059.79851	0.06353
4057.86986	0.05952
4055.94122	0.05844
4054.01257	0.05984
4052.08393	0.06263
4050.15528	0.06565
4048.22664	0.06812
4046.29799	0.06975
4044.36935	0.07036
4042.44070	0.06964
4040.51206	0.06762
4038.58341	0.06506
4036.65476	0.06301
4034.72612	0.06209
4032.79747	0.06205
4030.86883	0.06212
4028.94018	0.06139
4027.01154	0.05927
4025.08289	0.05619
4023.15425	0.05343
4021.22560	0.05205
4019.29696	0.05212
4017.36831	0.05298
4015.43967	0.05397
4013.51102	0.05475
4011.58237	0.05528
4009.65373	0.05573
4007.72508	0.05618
4005.79644	0.05643
4003.86779	0.05623
4001.93915	0.05582
4000.01050	0.05587
3998.08186	0.05697
3996.15321	0.05925
3994.22457	0.06221
3992.29592	0.06509
3990.36728	0.06718
3988.43863	0.06814
3986.50998	0.06809
3984.58134	0.06744
3982.65269	0.06664
3980.72405	0.06595
3978.79540	0.06539
3976.86676	0.06475
3974.93811	0.06376
3973.00947	0.06229
3971.08082	0.06059
3969.15218	0.05923
3967.22353	0.05896
3965.29489	0.06023
3963.36624	0.06291
3961.43759	0.06619
3959.50895	0.06889
3957.58030	0.07008
3955.65166	0.06939
3953.72301	0.06715
3951.79437	0.06417
3949.86572	0.06145
3947.93708	0.05974
3946.00843	0.05937
3944.07979	0.06019
3942.15114	0.06175
3940.22250	0.06345
3938.29385	0.06469
3936.36521	0.06503
3934.43656	0.06431
3932.50791	0.06276
3930.57927	0.06085
3928.65062	0.05917
3926.72198	0.05815
3924.79333	0.05799
3922.86469	0.05856
3920.93604	0.05951
3919.00740	0.06052
3917.07875	0.06137
3915.15011	0.06199
3913.22146	0.06242
3911.29282	0.06269
3909.36417	0.06278
3907.43552	0.06274
3905.50688	0.06276
3903.57823	0.06311
3901.64959	0.06398
3899.72094	0.06542
3897.79230	0.06724
3895.86365	0.06899
3893.93501	0.07018
3892.00636	0.07050
3890.07772	0.07000
3888.14907	0.06901
3886.22043	0.06794
3884.29178	0.06704
3882.36313	0.06633
3880.43449	0.06566
3878.50584	0.06487
3876.57720	0.06394
3874.64855	0.06303
3872.71991	0.06244
3870.79126	0.06230
3868.86262	0.06244
3866.93397	0.06243
3865.00533	0.06178
3863.07668	0.06014
3861.14804	0.05751
3859.21939	0.05426
3857.29074	0.05108
3855.36210	0.04883
3853.43345	0.04823
3851.50481	0.04967
3849.57616	0.05303
3847.64752	0.05756
3845.71887	0.06209
3843.79023	0.06537
3841.86158	0.06657
3839.93294	0.06571
3838.00429	0.06363
3836.07565	0.06161
3834.14700	0.06070
3832.21835	0.06117
3830.28971	0.06242
3828.36106	0.06339
3826.43242	0.06321
3824.50377	0.06164
3822.57513	0.05913
3820.64648	0.05648
3818.71784	0.05440
3816.78919	0.05333
3814.86055	0.05341
3812.93190	0.05468
3811.00326	0.05716
3809.07461	0.06070
3807.14597	0.06483
3805.21732	0.06870
3803.28867	0.07140
3801.36003	0.07242
3799.43138	0.07184
3797.50274	0.07029
3795.57409	0.06849
3793.64545	0.06690
3791.71680	0.06551
3789.78816	0.06391
3787.85951	0.06174
3785.93087	0.05897
3784.00222	0.05602
3782.07358	0.05349
3780.14493	0.05206
3778.21628	0.05225
3776.28764	0.05432
3774.35899	0.05811
3772.43035	0.06297
3770.50170	0.06785
3768.57306	0.07154
3766.64441	0.07312
3764.71577	0.07231
3762.78712	0.06960
3760.85848	0.06600
3758.92983	0.06255
3757.00119	0.05984
3755.07254	0.05797
3753.14389	0.05676
3751.21525	0.05606
3749.28660	0.05586
3747.35796	0.05619
3745.42931	0.05696
3743.50067	0.05796
3741.57202	0.05890
3739.64338	0.05959
3737.71473	0.06010
3735.78609	0.06077
3733.85744	0.06199
3731.92880	0.06394
3730.00015	0.06649
3728.07150	0.06931
3726.14286	0.07194
3724.21421	0.07390
3722.28557	0.07478
3720.35692	0.07442
3718.42828	0.07301
3716.49963	0.07116
3714.57099	0.06980
3712.64234	0.06986
3710.71370	0.07193
3708.78505	0.07595
3706.85641	0.08115
3704.92776	0.08641
3702.99911	0.09072
3701.07047	0.09348
3699.14182	0.09462
3697.21318	0.09454
3695.28453	0.09384
3693.35589	0.09312
3691.42724	0.09285
3689.49860	0.09330
3687.56995	0.09442
3685.64131	0.09597
3683.71266	0.09767
3681.78402	0.09957
3679.85537	0.10212
3677.92673	0.10605
3675.99808	0.11196
3674.06943	0.11985
3672.14079	0.12906
3670.21214	0.13853
3668.28350	0.14727
3666.35485	0.15480
3664.42621	0.16121
3662.49756	0.16700
3660.56892	0.17274
3658.64027	0.17885
3656.71163	0.18544
3654.78298	0.19242
3652.85434	0.19972
3650.92569	0.20730
3648.99704	0.21527
3647.06840	0.22384
3645.13975	0.23336
3643.21111	0.24418
3641.28246	0.25641
3639.35382	0.26987
3637.42517	0.28421
3635.49653	0.29906
3633.56788	0.31408
3631.63924	0.32905
3629.71059	0.34390
3627.78195	0.35862
3625.85330	0.37303
3623.92465	0.38677
3621.99601	0.39942
3620.06736	0.41076
3618.13872	0.42094
3616.21007	0.43063
3614.28143	0.44090
3612.35278	0.45291
3610.42414	0.46748
3608.49549	0.48472
3606.56685	0.50405
3604.63820	0.52437
3602.70956	0.54445
3600.78091	0.56328
3598.85226	0.58039
3596.92362	0.59584
3594.99497	0.61005
3593.06633	0.62360
3591.13768	0.63694
3589.20904	0.65030
3587.28039	0.66379
3585.35175	0.67754
3583.42310	0.69178
3581.49446	0.70674
3579.56581	0.72250
3577.63717	0.73882
3575.70852	0.75516
3573.77988	0.77091
3571.85123	0.78583
3569.92258	0.80020
3567.99394	0.81462
3566.06529	0.82967
3564.13665	0.84556
3562.20800	0.86214
3560.27936	0.87907
3558.35071	0.89606
3556.42207	0.91301
3554.49342	0.92996
3552.56478	0.94698
3550.63613	0.96390
3548.70749	0.98039
3546.77884	0.99623
3544.85019	1.01140
3542.92155	1.02622
3540.99290	1.04116
3539.06426	1.05676
3537.13561	1.07340
3535.20697	1.09107
3533.27832	1.10928
3531.34968	1.12717
3529.42103	1.14382
3527.49239	1.15857
3525.56374	1.17135
3523.63510	1.18275
3521.70645	1.19378
3519.77780	1.20546
3517.84916	1.21851
3515.92051	1.23317
3513.99187	1.24918
3512.06322	1.26604
3510.13458	1.28320
3508.20593	1.30022
3506.27729	1.31673
3504.34864	1.33249
3502.42000	1.34743
3500.49135	1.36175
3498.56271	1.37571
3496.63406	1.38959
3494.70541	1.40351
3492.77677	1.41734
3490.84812	1.43065
3488.91948	1.44290
3486.99083	1.45373
3485.06219	1.46323
3483.13354	1.47191
3481.20490	1.48053
3479.27625	1.48995
3477.34761	1.50084
3475.41896	1.51347
3473.49032	1.52756
3471.56167	1.54244
3469.63302	1.55730
3467.70438	1.57151
3465.77573	1.58473
3463.84709	1.59700
3461.91844	1.60865
3459.98980	1.62004
3458.06115	1.63127
3456.13251	1.64222
3454.20386	1.65274
3452.27522	1.66285
3450.34657	1.67266
3448.41793	1.68241
3446.48928	1.69228
3444.56064	1.70214
3442.63199	1.71154
3440.70334	1.72001
3438.77470	1.72742
3436.84605	1.73408
3434.91741	1.74070
3432.98876	1.74800
3431.06012	1.75626
3429.13147	1.76504
3427.20283	1.77341
3425.27418	1.78046
3423.34554	1.78589
3421.41689	1.79025
3419.48825	1.79467
3417.55960	1.80027
3415.63095	1.80753
3413.70231	1.81602
3411.77366	1.82471
3409.84502	1.83248
3407.91637	1.83869
3405.98773	1.84337
3404.05908	1.84712
3402.13044	1.85073
3400.20179	1.85476
3398.27315	1.85939
3396.34450	1.86440
3394.41586	1.86936
3392.48721	1.87375
3390.55856	1.87721
3388.62992	1.87964
3386.70127	1.88136
3384.77263	1.88290
3382.84398	1.88477
3380.91534	1.88722
3378.98669	1.89004
3377.05805	1.89268
3375.12940	1.89450
3373.20076	1.89516
3371.27211	1.89475
3369.34347	1.89377
3367.41482	1.89293
3365.48617	1.89281
3363.55753	1.89366
3361.62888	1.89532
3359.70024	1.89733
3357.77159	1.89902
3355.84295	1.89971
3353.91430	1.89896
3351.98566	1.89670
3350.05701	1.89327
3348.12837	1.88914
3346.19972	1.88480
3344.27108	1.88053
3342.34243	1.87652
3340.41378	1.87292
3338.48514	1.87000
3336.55649	1.86810
3334.62785	1.86752
3332.69920	1.86824
3330.77056	1.86989
3328.84191	1.87183
3326.91327	1.87340
3324.98462	1.87415
3323.05598	1.87390
3321.12733	1.87271
3319.19869	1.87077
3317.27004	1.86831
3315.34140	1.86555
3313.41275	1.86268
3311.48410	1.85990
3309.55546	1.85735
3307.62681	1.85509
3305.69817	1.85319
3303.76952	1.85169
3301.84088	1.85061
3299.91223	1.84991
3297.98359	1.84956
3296.05494	1.84951
3294.12630	1.84971
3292.19765	1.85004
3290.26901	1.85028
3288.34036	1.85001
3286.41171	1.84865
3284.48307	1.84566
3282.55442	1.84087
3280.62578	1.83464
3278.69713	1.82778
3276.76849	1.82119
3274.83984	1.81550
3272.91120	1.81076
3270.98255	1.80653
3269.05391	1.80212
3267.12526	1.79705
3265.19662	1.79131
3263.26797	1.78531
3261.33932	1.77956
3259.41068	1.77442
3257.48203	1.76986
3255.55339	1.76548
3253.62474	1.76071
3251.69610	1.75517
3249.76745	1.74881
3247.83881	1.74194
3245.91016	1.73494
3243.98152	1.72816
3242.05287	1.72166
3240.12423	1.71522
3238.19558	1.70854
3236.26693	1.70148
3234.33829	1.69411
3232.40964	1.68670
3230.48100	1.67960
3228.55235	1.67310
3226.62371	1.66721
3224.69506	1.66161
3222.76642	1.65588
3220.83777	1.64961
3218.90913	1.64259
3216.98048	1.63482
3215.05184	1.62650
3213.12319	1.61792
3211.19455	1.60927
3209.26590	1.60063
3207.33725	1.59208
3205.40861	1.58376
3203.47996	1.57586
3201.55132	1.56846
3199.62267	1.56151
3197.69403	1.55480
3195.76538	1.54795
3193.83674	1.54059
3191.90809	1.53261
3189.97945	1.52410
3188.05080	1.51527
3186.12216	1.50628
3184.19351	1.49726
3182.26486	1.48834
3180.33622	1.47972
3178.40757	1.47165
3176.47893	1.46440
3174.55028	1.45798
3172.62164	1.45194
3170.69299	1.44538
3168.76435	1.43736
3166.83570	1.42731
3164.90706	1.41538
3162.97841	1.40252
3161.04977	1.39018
3159.12112	1.37972
3157.19247	1.37175
3155.26383	1.36592
3153.33518	1.36103
3151.40654	1.35569
3149.47789	1.34886
3147.54925	1.34030
3145.62060	1.33053
3143.69196	1.32050
3141.76331	1.31109
3139.83467	1.30270
3137.90602	1.29519
3135.97738	1.28800
3134.04873	1.28058
3132.12008	1.27273
3130.19144	1.26457
3128.26279	1.25650
3126.33415	1.24892
3124.40550	1.24208
3122.47686	1.23585
3120.54821	1.22991
3118.61957	1.22398
3116.69092	1.21800
3114.76228	1.21200
3112.83363	1.20599
3110.90499	1.19985
3108.97634	1.19338
3107.04769	1.18645
3105.11905	1.17912
3103.19040	1.17184
3101.26176	1.16522
3099.33311	1.15965
3097.40447	1.15503
3095.47582	1.15073
3093.54718	1.14596
3091.61853	1.14008
3089.68989	1.13304
3087.76124	1.12535
3085.83260	1.11786
3083.90395	1.11119
3081.97531	1.10547
3080.04666	1.10030
3078.11801	1.09504
3076.18937	1.08922
3074.26072	1.08271
3072.33208	1.07574
3070.40343	1.06857
3068.47479	1.06126
3066.54614	1.05370
3064.61750	1.04571
3062.68885	1.03727
3060.76021	1.02865
3058.83156	1.02038
3056.90292	1.01296
3054.97427	1.00664
3053.04562	1.00136
3051.11698	0.99678
3049.18833	0.99244
3047.25969	0.98789
3045.33104	0.98277
3043.40240	0.97685
3041.47375	0.97013
3039.54511	0.96285
3037.61646	0.95533
3035.68782	0.94795
3033.75917	0.94101
3031.83053	0.93466
3029.90188	0.92891
3027.97323	0.92368
3026.04459	0.91890
3024.11594	0.91447
3022.18730	0.91019
3020.25865	0.90582
3018.33001	0.90112
3016.40136	0.89598
3014.47272	0.89056
3012.54407	0.88525
3010.61543	0.88053
3008.68678	0.87662
3006.75814	0.87340
3004.82949	0.87067
3002.90084	0.86820
3000.97220	0.86585
2999.04355	0.86362
2997.11491	0.86183
2995.18626	0.86092
2993.25762	0.86106
2991.32897	0.86215
2989.40033	0.86397
2987.47168	0.86611
2985.54304	0.86791
2983.61439	0.86899
2981.68575	0.86967
2979.75710	0.87077
2977.82845	0.87300
2975.89981	0.87681
2973.97116	0.88228
2972.04252	0.88885
2970.11387	0.89555
2968.18523	0.90160
2966.25658	0.90658
2964.32794	0.91021
2962.39929	0.91229
2960.47065	0.91282
2958.54200	0.91200
2956.61336	0.91014
2954.68471	0.90774
2952.75607	0.90551
2950.82742	0.90423
2948.89877	0.90458
2946.97013	0.90705
2945.04148	0.91173
2943.11284	0.91812
2941.18419	0.92533
2939.25555	0.93240
2937.32690	0.93873
2935.39826	0.94433
2933.46961	0.94976
2931.54097	0.95570
2929.61232	0.96242
2927.68368	0.96946
2925.75503	0.97563
2923.82638	0.97916
2921.89774	0.97821
2919.96909	0.97148
2918.04045	0.95858
2916.11180	0.94025
2914.18316	0.91821
2912.25451	0.89486
2910.32587	0.87259
2908.39722	0.85314
2906.46858	0.83736
2904.53993	0.82531
2902.61129	0.81632
2900.68264	0.80930
2898.75399	0.80312
2896.82535	0.79692
2894.89670	0.79025
2892.96806	0.78311
2891.03941	0.77599
2889.11077	0.76963
2887.18212	0.76470
2885.25348	0.76142
2883.32483	0.75944
2881.39619	0.75817
2879.46754	0.75699
2877.53890	0.75541
2875.61025	0.75320
2873.68160	0.75043
2871.75296	0.74729
2869.82431	0.74395
2867.89567	0.74051
2865.96702	0.73735
2864.03838	0.73508
2862.10973	0.73430
2860.18109	0.73529
2858.25244	0.73790
2856.32380	0.74127
2854.39515	0.74372
2852.46651	0.74314
2850.53786	0.73783
2848.60922	0.72725
2846.68057	0.71211
2844.75192	0.69416
2842.82328	0.67583
2840.89463	0.65938
2838.96599	0.64593
2837.03734	0.63534
2835.10870	0.62688
2833.18005	0.61986
2831.25141	0.61376
2829.32276	0.60837
2827.39412	0.60381
2825.46547	0.60018
2823.53683	0.59716
2821.60818	0.59413
2819.67953	0.59059
2817.75089	0.58628
2815.82224	0.58108
2813.89360	0.57515
2811.96495	0.56895
2810.03631	0.56296
2808.10766	0.55748
2806.17902	0.55268
2804.25037	0.54875
2802.32173	0.54577
2800.39308	0.54354
2798.46444	0.54173
2796.53579	0.53999
2794.60714	0.53779
2792.67850	0.53466
2790.74985	0.53067
2788.82121	0.52653
2786.89256	0.52312
2784.96392	0.52087
2783.03527	0.51948
2781.10663	0.51805
2779.17798	0.51552
2777.24934	0.51132
2775.32069	0.50595
2773.39205	0.50073
2771.46340	0.49688
2769.53475	0.49481
2767.60611	0.49408
2765.67746	0.49371
2763.74882	0.49269
2761.82017	0.49054
2759.89153	0.48758
2757.96288	0.48447
2756.03424	0.48171
2754.10559	0.47951
2752.17695	0.47787
2750.24830	0.47658
2748.31966	0.47535
2746.39101	0.47396
2744.46236	0.47224
2742.53372	0.47011
2740.60507	0.46763
2738.67643	0.46504
2736.74778	0.46261
2734.81914	0.46054
2732.89049	0.45880
2730.96185	0.45708
2729.03320	0.45498
2727.10456	0.45237
2725.17591	0.44953
2723.24727	0.44693
2721.31862	0.44494
2719.38998	0.44358
2717.46133	0.44239
2715.53268	0.44082
2713.60404	0.43861
2711.67539	0.43606
2709.74675	0.43373
2707.81810	0.43202
2705.88946	0.43090
2703.96081	0.42992
2702.03217	0.42841
2700.10352	0.42582
2698.17488	0.42217
2696.24623	0.41801
2694.31759	0.41408
2692.38894	0.41097
2690.46029	0.40903
2688.53165	0.40834
2686.60300	0.40858
2684.67436	0.40902
2682.74571	0.40888
2680.81707	0.40758
2678.88842	0.40491
2676.95978	0.40110
2675.03113	0.39674
2673.10249	0.39261
2671.17384	0.38945
2669.24520	0.38762
2667.31655	0.38703
2665.38790	0.38728
2663.45926	0.38780
2661.53061	0.38790
2659.60197	0.38687
2657.67332	0.38431
2655.74468	0.38041
2653.81603	0.37572
2651.88739	0.37100
2649.95874	0.36703
2648.03010	0.36433
2646.10145	0.36281
2644.17281	0.36186
2642.24416	0.36083
2640.31551	0.35939
2638.38687	0.35743
2636.45822	0.35502
2634.52958	0.35222
2632.60093	0.34901
2630.67229	0.34527
2628.74364	0.34105
2626.81500	0.33693
2624.88635	0.33376
2622.95771	0.33213
2621.02906	0.33203
2619.10042	0.33280
2617.17177	0.33337
2615.24312	0.33275
2613.31448	0.33044
2611.38583	0.32663
2609.45719	0.32198
2607.52854	0.31739
2605.59990	0.31390
2603.67125	0.31232
2601.74261	0.31299
2599.81396	0.31551
2597.88532	0.31877
2595.95667	0.32137
2594.02803	0.32221
2592.09938	0.32106
2590.17074	0.31864
2588.24209	0.31604
2586.31344	0.31399
2584.38480	0.31245
2582.45615	0.31079
2580.52751	0.30831
2578.59886	0.30479
2576.67022	0.30081
2574.74157	0.29758
2572.81293	0.29629
2570.88428	0.29728
2568.95564	0.30003
2567.02699	0.30351
2565.09835	0.30672
2563.16970	0.30902
2561.24105	0.31033
2559.31241	0.31100
2557.38376	0.31117
2555.45512	0.31038
2553.52647	0.30784
2551.59783	0.30335
2549.66918	0.29758
2547.74054	0.29166
2545.81189	0.28666
2543.88325	0.28351
2541.95460	0.28268
2540.02596	0.28393
2538.09731	0.28665
2536.16866	0.29027
2534.24002	0.29413
2532.31137	0.29712
2530.38273	0.29793
2528.45408	0.29589
2526.52544	0.29139
2524.59679	0.28572
2522.66815	0.28039
2520.73950	0.27655
2518.81086	0.27465
2516.88221	0.27444
2514.95357	0.27511
2513.02492	0.27579
2511.09627	0.27621
2509.16763	0.27691
2507.23898	0.27858
2505.31034	0.28134
2503.38169	0.28468
2501.45305	0.28779
2499.52440	0.28968
2497.59576	0.28957
2495.66711	0.28767
2493.73847	0.28538
2491.80982	0.28429
2489.88118	0.28505
2487.95253	0.28723
2486.02389	0.28988
2484.09524	0.29201
2482.16659	0.29295
2480.23795	0.29253
2478.30930	0.29096
2476.38066	0.28858
2474.45201	0.28582
2472.52337	0.28315
2470.59472	0.28102
2468.66608	0.27982
2466.73743	0.27971
2464.80879	0.28033
2462.88014	0.28088
2460.95150	0.28077
2459.02285	0.28000
2457.09420	0.27886
2455.16556	0.27757
2453.23691	0.27610
2451.30827	0.27421
2449.37962	0.27162
2447.45098	0.26848
2445.52233	0.26549
2443.59369	0.26368
2441.66504	0.26399
2439.73640	0.26677
2437.80775	0.27134
2435.87911	0.27613
2433.95046	0.27961
2432.02181	0.28085
2430.09317	0.27957
2428.16452	0.27620
2426.23588	0.27180
2424.30723	0.26764
2422.37859	0.26469
2420.44994	0.26353
2418.52130	0.26455
2416.59265	0.26768
2414.66401	0.27206
2412.73536	0.27636
2410.80672	0.27936
2408.87807	0.28031
2406.94942	0.27912
2405.02078	0.27632
2403.09213	0.27283
2401.16349	0.26964
2399.23484	0.26742
2397.30620	0.26642
2395.37755	0.26669
2393.44891	0.26816
2391.52026	0.27072
2389.59162	0.27411
2387.66297	0.27797
2385.73433	0.28193
2383.80568	0.28571
2381.87703	0.28901
2379.94839	0.29156
2378.01974	0.29332
2376.09110	0.29447
2374.16245	0.29503
2372.23381	0.29473
2370.30516	0.29318
2368.37652	0.29012
2366.44787	0.28538
2364.51923	0.27914
2362.59058	0.27222
2360.66194	0.26586
2358.73329	0.26114
2356.80465	0.25876
2354.87600	0.25897
2352.94735	0.26136
2351.01871	0.26468
2349.09006	0.26736
2347.16142	0.26823
2345.23277	0.26690
2343.30413	0.26411
2341.37548	0.26152
2339.44684	0.26093
2337.51819	0.26324
2335.58955	0.26779
2333.66090	0.27268
2331.73226	0.27572
2329.80361	0.27550
2327.87496	0.27215
2325.94632	0.26725
2324.01767	0.26296
2322.08903	0.26095
2320.16038	0.26169
2318.23174	0.26441
2316.30309	0.26772
2314.37445	0.27030
2312.44580	0.27128
2310.51716	0.27037
2308.58851	0.26776
2306.65987	0.26395
2304.73122	0.25951
2302.80257	0.25504
2300.87393	0.25108
2298.94528	0.24806
2297.01664	0.24605
2295.08799	0.24478
2293.15935	0.24375
2291.23070	0.24232
2289.30206	0.23999
2287.37341	0.23657
2285.44477	0.23233
2283.51612	0.22790
2281.58748	0.22412
2279.65883	0.22186
2277.73018	0.22178
2275.80154	0.22394
2273.87289	0.22773
2271.94425	0.23204
2270.01560	0.23552
2268.08696	0.23680
2266.15831	0.23482
2264.22967	0.22913
2262.30102	0.22014
2260.37238	0.20918
2258.44373	0.19836
2256.51509	0.19014
2254.58644	0.18648
2252.65779	0.18795
2250.72915	0.19350
2248.80050	0.20134
2246.87186	0.20993
2244.94321	0.21802
2243.01457	0.22446
2241.08592	0.22857
2239.15728	0.23020
2237.22863	0.22903
2235.29999	0.22488
2233.37134	0.21887
2231.44270	0.21323
2229.51405	0.20980
2227.58541	0.20882
2225.65676	0.20934
2223.72811	0.21000
2221.79947	0.20958
2219.87082	0.20785
2217.94218	0.20615
2216.01353	0.20630
2214.08489	0.20856
2212.15624	0.21072
2210.22760	0.20948
2208.29895	0.20337
2206.37031	0.19404
2204.44166	0.18537
2202.51302	0.18167
2200.58437	0.18495
2198.65572	0.19265
2196.72708	0.19822
2194.79843	0.19495
2192.86979	0.17966
2190.94114	0.15334
2189.01250	0.12048
2187.08385	0.08885
2185.15521	0.06729
2183.22656	0.06131
2181.29792	0.07044
2179.36927	0.08951
2177.44063	0.11114
2175.51198	0.12692
2173.58333	0.13034
2171.65469	0.12064
2169.72604	0.10208
2167.79740	0.07918
2165.86875	0.05481
2163.94011	0.03276
2162.01146	0.01882
2160.08282	0.01700
2158.15417	0.02695
2156.22553	0.04522
2154.29688	0.06550
2152.36824	0.07936
2150.43959	0.08086
2148.51094	0.07141
2146.58230	0.05886
2144.65365	0.05143
2142.72501	0.05353
2140.79636	0.06558
2138.86772	0.08449
2136.93907	0.10523
2135.01043	0.12363
2133.08178	0.13797
2131.15314	0.14819
2129.22449	0.15470
2127.29585	0.15800
2125.36720	0.15885
2123.43856	0.15807
2121.50991	0.15659
2119.58126	0.15558
2117.65262	0.15601
2115.72397	0.15803
2113.79533	0.16131
2111.86668	0.16546
2109.93804	0.16997
2108.00939	0.17402
2106.08075	0.17675
2104.15210	0.17776
2102.22346	0.17700
2100.29481	0.17436
2098.36617	0.17012
2096.43752	0.16520
2094.50887	0.16060
2092.58023	0.15679
2090.65158	0.15377
2088.72294	0.15141
2086.79429	0.14973
2084.86565	0.14887
2082.93700	0.14902
2081.00836	0.15008
2079.07971	0.15131
2077.15107	0.15166
2075.22242	0.15038
2073.29378	0.14756
2071.36513	0.14439
2069.43648	0.14267
2067.50784	0.14382
2065.57919	0.14780
2063.65055	0.15300
2061.72190	0.15691
2059.79326	0.15713
2057.86461	0.15219
2055.93597	0.14211
2054.00732	0.12827
2052.07868	0.11285
2050.15003	0.09800
2048.22139	0.08532
2046.29274	0.07566
2044.36409	0.06933
2042.43545	0.06625
2040.50680	0.06585
2038.57816	0.06674
2036.64951	0.06668
2034.72087	0.06374
2032.79222	0.05767
2030.86358	0.05040
2028.93493	0.04525
2027.00629	0.04563
2025.07764	0.05377
2023.14900	0.07004
2021.22035	0.09268
2019.29170	0.11859
2017.36306	0.14418
2015.43441	0.16636
2013.50577	0.18133
2011.57712	0.18498
2009.64848	0.17566
2007.71983	0.15627
2005.79119	0.13347
2003.86254	0.11512
2001.93390	0.10745
2000.00525	0.11239
1998.07661	0.12629
1996.14796	0.14179
1994.21932	0.15203
1992.29067	0.15360
1990.36202	0.14673
1988.43338	0.13414
1986.50473	0.11961
1984.57609	0.10649
1982.64744	0.09695
1980.71880	0.09205
1978.79015	0.09215
1976.86151	0.09671
1974.93286	0.10419
1973.00422	0.11260
1971.07557	0.12008
1969.14693	0.12534
1967.21828	0.12800
1965.28963	0.12857
1963.36099	0.12811
1961.43234	0.12792
1959.50370	0.12931
1957.57505	0.13329
1955.64641	0.13986
1953.71776	0.14768
1951.78912	0.15449
1949.86047	0.15810
1947.93183	0.15738
1946.00318	0.15294
1944.07454	0.14690
1942.14589	0.14179
1940.21724	0.13937
1938.28860	0.14012
1936.35995	0.14336
1934.43131	0.14771
1932.50266	0.15152
1930.57402	0.15356
1928.64537	0.15339
1926.71673	0.15158
1924.78808	0.14953
1922.85944	0.14887
1920.93079	0.15060
1919.00215	0.15442
1917.07350	0.15879
1915.14485	0.16169
1913.21621	0.16160
1911.28756	0.15825
1909.35892	0.15269
1907.43027	0.14689
1905.50163	0.14292
1903.57298	0.14214
1901.64434	0.14489
1899.71569	0.15044
1897.78705	0.15743
1895.85840	0.16433
1893.92976	0.16995
1892.00111	0.17361
1890.07246	0.17517
1888.14382	0.17471
1886.21517	0.17251
1884.28653	0.16901
1882.35788	0.16493
1880.42924	0.16107
1878.50059	0.15813
1876.57195	0.15644
1874.64330	0.15587
1872.71466	0.15608
1870.78601	0.15676
1868.85737	0.15786
1866.92872	0.15937
1865.00008	0.16117
1863.07143	0.16281
1861.14278	0.16371
1859.21414	0.16338
1857.28549	0.16175
1855.35685	0.15935
1853.42820	0.15705
1851.49956	0.15568
1849.57091	0.15564
1847.64227	0.15677
1845.71362	0.15852
1843.78498	0.16015
1841.85633	0.16111
1839.92769	0.16130
1837.99904	0.16101
1836.07039	0.16061
1834.14175	0.16039
1832.21310	0.16037
1830.28446	0.16041
1828.35581	0.16041
1826.42717	0.16047
1824.49852	0.16090
1822.56988	0.16194
1820.64123	0.16360
1818.71259	0.16556
1816.78394	0.16739
1814.85530	0.16872
1812.92665	0.16942
1810.99800	0.16969
1809.06936	0.16989
1807.14071	0.17035
1805.21207	0.17119
1803.28342	0.17235
1801.35478	0.17364
1799.42613	0.17490
1797.49749	0.17601
1795.56884	0.17699
1793.64020	0.17802
1791.71155	0.17928
1789.78291	0.18084
1787.85426	0.18261
1785.92561	0.18445
1783.99697	0.18626
1782.06832	0.18805
1780.13968	0.18998
1778.21103	0.19221
1776.28239	0.19484
1774.35374	0.19783
1772.42510	0.20099
1770.49645	0.20414
1768.56781	0.20720
1766.63916	0.21028
1764.71052	0.21363
1762.78187	0.21757
1760.85322	0.22239
1758.92458	0.22828
1756.99593	0.23526
1755.06729	0.24324
1753.13864	0.25208
1751.21000	0.26171
1749.28135	0.27213
1747.35271	0.28331
1745.42406	0.29513
1743.49542	0.30734
1741.56677	0.31961
1739.63813	0.33156
1737.70948	0.34292
1735.78084	0.35352
1733.85219	0.36325
1731.92354	0.37201
1729.99490	0.37963
1728.06625	0.38606
1726.13761	0.39142
1724.20896	0.39610
1722.28032	0.40072
1720.35167	0.40601
1718.42303	0.41255
1716.49438	0.42054
1714.56574	0.42978
1712.63709	0.43976
1710.70845	0.44996
1708.77980	0.46011
1706.85115	0.47040
1704.92251	0.48145
1702.99386	0.49412
1701.06522	0.50917
1699.13657	0.52705
1697.20793	0.54785
1695.27928	0.57141
1693.35064	0.59741
1691.42199	0.62547
1689.49335	0.65512
1687.56470	0.68575
1685.63606	0.71671
1683.70741	0.74739
1681.77876	0.77743
1679.85012	0.80682
1677.92147	0.83593
1675.99283	0.86524
1674.06418	0.89512
1672.13554	0.92566
1670.20689	0.95667
1668.27825	0.98771
1666.34960	1.01824
1664.42096	1.04761
1662.49231	1.07517
1660.56367	1.10026
1658.63502	1.12225
1656.70637	1.14075
1654.77773	1.15577
1652.84908	1.16777
1650.92044	1.17743
1648.99179	1.18537
1647.06315	1.19193
1645.13450	1.19703
1643.20586	1.20033
1641.27721	1.20145
1639.34857	1.20025
1637.41992	1.19697
1635.49128	1.19208
1633.56263	1.18603
1631.63399	1.17915
1629.70534	1.17158
1627.77669	1.16335
1625.84805	1.15455
1623.91940	1.14544
1621.99076	1.13646
1620.06211	1.12813
1618.13347	1.12083
1616.20482	1.11470
1614.27618	1.10960
1612.34753	1.10517
1610.41889	1.10100
1608.49024	1.09677
1606.56160	1.09232
1604.63295	1.08755
1602.70430	1.08234
1600.77566	1.07638
1598.84701	1.06912
1596.91837	1.05998
1594.98972	1.04859
1593.06108	1.03502
1591.13243	1.01974
1589.20379	1.00348
1587.27514	0.98699
1585.34650	0.97076
1583.41785	0.95493
1581.48921	0.93942
1579.56056	0.92417
1577.63191	0.90930
1575.70327	0.89507
1573.77462	0.88171
1571.84598	0.86930
1569.91733	0.85760
1567.98869	0.84621
1566.06004	0.83471
1564.13140	0.82292
1562.20275	0.81091
1560.27411	0.79901
1558.34546	0.78756
1556.41682	0.77664
1554.48817	0.76601
1552.55952	0.75515
1550.63088	0.74350
1548.70223	0.73065
1546.77359	0.71658
1544.84494	0.70167
1542.91630	0.68656
1540.98765	0.67189
1539.05901	0.65817
1537.13036	0.64567
1535.20172	0.63446
1533.27307	0.62452
1531.34443	0.61585
1529.41578	0.60843
1527.48713	0.60229
1525.55849	0.59731
1523.62984	0.59316
1521.70120	0.58917
1519.77255	0.58439
1517.84391	0.57776
1515.91526	0.56842
1513.98662	0.55603
1512.05797	0.54096
1510.12933	0.52417
1508.20068	0.50695
1506.27204	0.49047
1504.34339	0.47548
1502.41475	0.46217
1500.48610	0.45023
1498.55745	0.43924
1496.62881	0.42882
1494.70016	0.41889
1492.77152	0.40963
1490.84287	0.40146
1488.91423	0.39487
1486.98558	0.39030
1485.05694	0.38815
1483.12829	0.38875
1481.19965	0.39242
1479.27100	0.39948
1477.34236	0.41008
1475.41371	0.42399
1473.48506	0.44051
1471.55642	0.45839
1469.62777	0.47604
1467.69913	0.49191
1465.77048	0.50493
1463.84184	0.51465
1461.91319	0.52124
1459.98455	0.52519
1458.05590	0.52702
1456.12726	0.52706
1454.19861	0.52550
1452.26997	0.52254
1450.34132	0.51855
1448.41267	0.51415
1446.48403	0.51007
1444.55538	0.50700
1442.62674	0.50549
1440.69809	0.50594
1438.76945	0.50867
1436.84080	0.51396
1434.91216	0.52191
1432.98351	0.53235
1431.05487	0.54479
1429.12622	0.55851
1427.19758	0.57275
1425.26893	0.58695
1423.34028	0.60091
1421.41164	0.61465
1419.48299	0.62821
1417.55435	0.64148
1415.62570	0.65406
1413.69706	0.66542
1411.76841	0.67503
1409.83977	0.68249
1407.91112	0.68765
1405.98248	0.69056
1404.05383	0.69141
1402.12519	0.69051
1400.19654	0.68820
1398.26789	0.68485
1396.33925	0.68081
1394.41060	0.67637
1392.48196	0.67168
1390.55331	0.66677
1388.62467	0.66164
1386.69602	0.65627
1384.76738	0.65070
1382.83873	0.64497
1380.91009	0.63907
1378.98144	0.63288
1377.05280	0.62613
1375.12415	0.61858
1373.19551	0.61014
1371.26686	0.60096
1369.33821	0.59140
1367.40957	0.58200
1365.48092	0.57325
1363.55228	0.56550
1361.62363	0.55886
1359.69499	0.55327
1357.76634	0.54856
1355.83770	0.54442
1353.90905	0.54058
1351.98041	0.53677
1350.05176	0.53280
1348.12312	0.52855
1346.19447	0.52398
1344.26582	0.51911
1342.33718	0.51398
1340.40853	0.50869
1338.47989	0.50344
1336.55124	0.49851
1334.62260	0.49423
1332.69395	0.49088
1330.76531	0.48854
1328.83666	0.48702
1326.90802	0.48595
1324.97937	0.48486
1323.05073	0.48333
1321.12208	0.48110
1319.19343	0.47820
1317.26479	0.47482
1315.33614	0.47126
1313.40750	0.46788
1311.47885	0.46501
1309.55021	0.46293
1307.62156	0.46175
1305.69292	0.46148
1303.76427	0.46197
1301.83563	0.46299
1299.90698	0.46430
1297.97834	0.46573
1296.04969	0.46728
1294.12104	0.46902
1292.19240	0.47110
1290.26375	0.47365
1288.33511	0.47675
1286.40646	0.48037
1284.47782	0.48441
1282.54917	0.48877
1280.62053	0.49339
1278.69188	0.49831
1276.76324	0.50360
1274.83459	0.50941
1272.90595	0.51588
1270.97730	0.52300
1269.04866	0.53052
1267.12001	0.53792
1265.19136	0.54447
1263.26272	0.54948
1261.33407	0.55242
1259.40543	0.55317
1257.47678	0.55209
1255.54814	0.54995
1253.61949	0.54771
1251.69085	0.54617
1249.76220	0.54579
1247.83356	0.54659
1245.90491	0.54818
1243.97627	0.54994
1242.04762	0.55137
1240.11897	0.55224
1238.19033	0.55260
1236.26168	0.55269
1234.33304	0.55271
1232.40439	0.55277
1230.47575	0.55278
1228.54710	0.55258
1226.61846	0.55197
1224.68981	0.55088
1222.76117	0.54932
1220.83252	0.54738
1218.90388	0.54520
1216.97523	0.54296
1215.04658	0.54083
1213.11794	0.53895
1211.18929	0.53742
1209.26065	0.53625
1207.33200	0.53542
1205.40336	0.53488
1203.47471	0.53461
1201.54607	0.53466
1199.61742	0.53529
1197.68878	0.53694
1195.76013	0.54021
1193.83149	0.54568
1191.90284	0.55384
1189.97419	0.56486
1188.04555	0.57858
1186.11690	0.59454
1184.18826	0.61218
1182.25961	0.63101
1180.33097	0.65077
1178.40232	0.67153
1176.47368	0.69368
1174.54503	0.71762
1172.61639	0.74352
1170.68774	0.77132
1168.75910	0.80061
1166.83045	0.83074
1164.90180	0.86103
1162.97316	0.89094
1161.04451	0.92001
1159.11587	0.94776
1157.18722	0.97385
1155.25858	0.99832
1153.32993	1.02161
1151.40129	1.04436
1149.47264	1.06732
1147.54400	1.09124
1145.61535	1.11667
1143.68671	1.14389
1141.75806	1.17317
1139.82942	1.20484
1137.90077	1.23917
1135.97212	1.27600
1134.04348	1.31469
1132.11483	1.35422
1130.18619	1.39342
1128.25754	1.43127
1126.32890	1.46705
1124.40025	1.50018
1122.47161	1.53007
1120.54296	1.55636
1118.61432	1.57924
1116.68567	1.59962
1114.75703	1.61907
1112.82838	1.63936
1110.89973	1.66174
1108.97109	1.68624
1107.04244	1.71179
1105.11380	1.73692
1103.18515	1.76056
1101.25651	1.78251
1099.32786	1.80349
1097.39922	1.82452
1095.47057	1.84657
1093.54193	1.87012
1091.61328	1.89507
1089.68464	1.92058
1087.75599	1.94509
1085.82734	1.96669
1083.89870	1.98369
1081.97005	1.99493
1080.04141	2.00000
1078.11276	1.99914
1076.18412	1.99293
1074.25547	1.98193
1072.32683	1.96634
1070.39818	1.94618
1068.46954	1.92183
1066.54089	1.89426
1064.61225	1.86478
1062.68360	1.83461
1060.75495	1.80471
1058.82631	1.77568
1056.89766	1.74769
1054.96902	1.72039
1053.04037	1.69324
1051.11173	1.66578
1049.18308	1.63782
1047.25444	1.60928
1045.32579	1.58017
1043.39715	1.55051
1041.46850	1.52035
1039.53986	1.48965
1037.61121	1.45836
1035.68256	1.42665
1033.75392	1.39492
1031.82527	1.36361
1029.89663	1.33271
1027.96798	1.30180
1026.03934	1.27044
1024.11069	1.23851
1022.18205	1.20615
1020.25340	1.17372
1018.32476	1.14183
1016.39611	1.11110
1014.46747	1.08172
1012.53882	1.05364
1010.61018	1.02712
1008.68153	1.00267
1006.75288	0.98073
1004.82424	0.96169
1002.89559	0.94602
1000.96695	0.93407
999.03830	0.92555
997.10966	0.91974
995.18101	0.91575
993.25237	0.91268
991.32372	0.90961
989.39508	0.90580
987.46643	0.90054
985.53779	0.89276
983.60914	0.88104
981.68049	0.86409
979.75185	0.84132
977.82320	0.81316
975.89456	0.78107
973.96591	0.74709
972.03727	0.71313
970.10862	0.68043
968.17998	0.64951
966.25133	0.62037
964.32269	0.59287
962.39404	0.56691
960.46540	0.54255
958.53675	0.52026
956.60810	0.50069
954.67946	0.48421
952.75081	0.47058
950.82217	0.45911
948.89352	0.44904
946.96488	0.43965
945.03623	0.43046
943.10759	0.42172
941.17894	0.41415
939.25030	0.40820
937.32165	0.40369
935.39301	0.40028
933.46436	0.39769
931.53571	0.39553
929.60707	0.39322
927.67842	0.39042
925.74978	0.38705
923.82113	0.38314
921.89249	0.37896
919.96384	0.37522
918.03520	0.37267
916.10655	0.37140
914.17791	0.37066
912.24926	0.36944
910.32062	0.36712
908.39197	0.36377
906.46333	0.36025
904.53468	0.35787
902.60603	0.35773
900.67739	0.36003
898.74874	0.36417
896.82010	0.36951
894.89145	0.37579
892.96281	0.38290
891.03416	0.39045
889.10552	0.39775
887.17687	0.40378
885.24823	0.40744
883.31958	0.40819
881.39094	0.40681
879.46229	0.40493
877.53364	0.40376
875.60500	0.40369
873.67635	0.40459
871.74771	0.40605
869.81906	0.40750
867.89042	0.40876
865.96177	0.41016
864.03313	0.41190
862.10448	0.41337
860.17584	0.41353
858.24719	0.41180
856.31855	0.40830
854.38990	0.40361
852.46125	0.39848
850.53261	0.39371
848.60396	0.38991
846.67532	0.38715
844.74667	0.38496
842.81803	0.38267
840.88938	0.37966
838.96074	0.37542
837.03209	0.36967
835.10345	0.36295
833.17480	0.35683
831.24616	0.35320
829.31751	0.35318
827.38886	0.35643
825.46022	0.36116
823.53157	0.36494
821.60293	0.36584
819.67428	0.36349
817.74564	0.35934
815.81699	0.35577
813.88835	0.35475
811.95970	0.35688
810.03106	0.36132
808.10241	0.36666
806.17377	0.37173
804.24512	0.37595
802.31647	0.37954
800.38783	0.38312
798.45918	0.38693
796.53054	0.39038
794.60189	0.39258
792.67325	0.39290
790.74460	0.39138
788.81596	0.38883
786.88731	0.38679
784.95867	0.38661
783.03002	0.38842
781.10138	0.39090
779.17273	0.39205
777.24409	0.39011
775.31544	0.38455
773.38679	0.37646
771.45815	0.36795
769.52950	0.36114
767.60086	0.35738
765.67221	0.35696
763.74357	0.35930
761.81492	0.36338
759.88628	0.36806
757.95763	0.37211
756.02899	0.37439
754.10034	0.37427
752.17170	0.37185
750.24305	0.36816
748.31440	0.36509
746.38576	0.36485
744.45711	0.36877
742.52847	0.37680
740.59982	0.38730
738.67118	0.39727
736.74253	0.40346
734.81389	0.40402
732.88524	0.39926
730.95660	0.39146
729.02795	0.38398
727.09931	0.38002
725.17066	0.38097
723.24201	0.38587
721.31337	0.39260
719.38472	0.39928
717.45608	0.40488
715.52743	0.40937
713.59879	0.41343
711.67014	0.41778
709.74150	0.42248
707.81285	0.42687
705.88421	0.43026
703.95556	0.43221
702.02692	0.43258
700.09827	0.43161
698.16962	0.42982
696.24098	0.42801
694.31233	0.42704
692.38369	0.42765
690.45504	0.43013
688.52640	0.43416
686.59775	0.43883
684.66911	0.44308
682.74046	0.44611
680.81182	0.44771
678.88317	0.44819
676.95453	0.44810
675.02588	0.44787
673.09723	0.44762
671.16859	0.44718
669.23994	0.44636
667.31130	0.44514
665.38265	0.44385
663.45401	0.44304
661.52536	0.44321
659.59672	0.44450
657.66807	0.44673
655.73943	0.44940
653.81078	0.45204
651.88214	0.45434
649.95349	0.45642
648.02485	0.45877
646.09620	0.46200
644.16755	0.46654
642.23891	0.47246
640.31026	0.47925
638.38162	0.48603
636.45297	0.49191
634.52433	0.49673
632.59568	0.50125
630.66704	0.50630
628.73839	0.51193
626.80975	0.51722
624.88110	0.52078
622.95246	0.52151
621.02381	0.51936
619.09516	0.51574
617.16652	0.51260
615.23787	0.51061
613.30923	0.50855
611.38058	0.50495
609.45194	0.50008
607.52329	0.49635
605.59465	0.49721
603.66600	0.50526
601.73736	0.52053
599.80871	0.53983
597.88007	0.55808
595.95142	0.57116
594.02277	0.57807
592.09413	0.58078
590.16548	0.58251
588.23684	0.58593
586.30819	0.59209
584.37955	0.60018
582.45090	0.60822
580.52226	0.61441
578.59361	0.61821
576.66497	0.62041
574.73632	0.62235
572.80768	0.62516
570.87903	0.62939
568.95038	0.63494
567.02174	0.64140
565.09309	0.64859
563.16445	0.65689
561.23580	0.66704
559.30716	0.67974
557.37851	0.69535
555.44987	0.71371
553.52122	0.73407
551.59258	0.75514
549.66393	0.77517
547.73529	0.79223
545.80664	0.80478
543.87800	0.81233
541.94935	0.81539
540.02070	0.81497
538.09206	0.81205
536.16341	0.80730
534.23477	0.80085
532.30612	0.79246
530.37748	0.78196
528.44883	0.76959
526.52019	0.75570
524.59154	0.74018
522.66290	0.72248
520.73425	0.70214
518.80561	0.67922
516.87696	0.65444
514.94831	0.62925
513.01967	0.60541
511.09102	0.58431
509.16238	0.56633
507.23373	0.55103
505.30509	0.53776
503.37644	0.52608
501.44780	0.51583
499.51915	0.50708
497.59051	0.49993
495.66186	0.49436
493.73322	0.49018
491.80457	0.48720
489.87592	0.48548
487.94728	0.48534
486.01863	0.48695
484.08999	0.49005
482.16134	0.49398
480.23270	0.49790
478.30405	0.50095
476.37541	0.50225
474.44676	0.50111
472.51812	0.49722
470.58947	0.49075
468.66083	0.48237
466.73218	0.47328
464.80353	0.46496
462.87489	0.45844
460.94624	0.45367
459.01760	0.44945
457.08895	0.44409
455.16031	0.43625
453.23166	0.42565
451.30302	0.41343
449.37437	0.40161
447.44573	0.39210
445.51708	0.38571
443.58844	0.38191
441.65979	0.37927
439.73114	0.37616
437.80250	0.37153
435.87385	0.36521
433.94521	0.35783
432.01656	0.35022
430.08792	0.34282
428.15927	0.33555
426.23063	0.32804
424.30198	0.32008
422.37334	0.31160
420.44469	0.30264
418.51605	0.29334
416.58740	0.28398
414.65876	0.27485
412.73011	0.26626
410.80146	0.25869
408.87282	0.25254
406.94417	0.24777
405.01553	0.24357
403.08688	0.23862
401.15824	0.23147
399.22959	0.22112
397.30095	0.20747
395.37230	0.19155
393.44366	0.17519
391.51501	0.16030
389.58637	0.14826
387.65772	0.13952
385.72907	0.13367
383.80043	0.12974
381.87178	0.12662
379.94314	0.12332
378.01449	0.11909
376.08585	0.11365
374.15720	0.10735
372.22856	0.10124
370.29991	0.09673
368.37127	0.09504
366.44262	0.09647
364.51398	0.09993
362.58533	0.10325
360.65668	0.10418
358.72804	0.10152
356.79939	0.09559
354.87075	0.08796
352.94210	0.08055
351.01346	0.07468
349.08481	0.07055
347.15617	0.06761
345.22752	0.06523
343.29888	0.06333
341.37023	0.06236
339.44159	0.06294
337.51294	0.06536
335.58429	0.06918
333.65565	0.07274
331.72700	0.07453
329.79836	0.07327
327.86971	0.06811
325.94107	0.05879
324.01242	0.04599
322.08378	0.03148
320.15513	0.01808
318.22649	0.00917
316.29784	0.00760
314.36920	0.01431
312.44055	0.02758
310.51190	0.04332
308.58326	0.05651
306.65461	0.06317
304.72597	0.06193
302.79732	0.05454
300.86868	0.04472
298.94003	0.03625
297.01139	0.03146
295.08274	0.03072
293.15410	0.03271
291.22545	0.03520
289.29681	0.03602
287.36816	0.03391
285.43952	0.02862
283.51087	0.02071
281.58222	0.01170
279.65358	0.00397
277.72493	0.00000
275.79629	0.00120
273.86764	0.00733
271.93900	0.01695
270.01035	0.02819
268.08171	0.03959
266.15306	0.05041
264.22442	0.06041
262.29577	0.06898
260.36713	0.07472
258.43848	0.07613
256.50983	0.07315
254.58119	0.06803
252.65254	0.06453
250.72390	0.06610
248.79525	0.07405
246.86661	0.08680
244.93796	0.10076
243.00932	0.11239
241.08067	0.12001
239.15203	0.12404
237.22338	0.12586
235.29474	0.12632
233.36609	0.12549
231.43744	0.12365
229.50880	0.12290
227.58015	0.12746
225.65151	0.14208
223.72286	0.16899
221.79422	0.20545
219.86557	0.24392
217.93693	0.27495
216.00828	0.29107
214.07964	0.28964
212.15099	0.27347
210.22235	0.24917
208.29370	0.22420
206.36505	0.20453
204.43641	0.19390
202.50776	0.19433
200.57912	0.20611
198.65047	0.22740
196.72183	0.25431
194.79318	0.28194
192.86454	0.30534
190.93589	0.32040
189.00725	0.32490
187.07860	0.31959
185.14996	0.30813
183.22131	0.29564
181.29267	0.28678
179.36402	0.28416
177.43537	0.28768
175.50673	0.29486
173.57808	0.30262
171.64944	0.30979
169.72079	0.31850
167.79215	0.33300
165.86350	0.35623
163.93486	0.38718
162.00621	0.42429
160.07757	0.45982
158.14892	0.48787
156.22028	0.50577
154.29163	0.50577
152.36298	0.50577
150.43434	0.50577
148.50569	0.50577
