4497.60101	0.10167
4495.67236	0.10167
4493.74372	0.10167
4491.81507	0.10167
4489.88643	0.10167
4487.95778	0.10649
4486.02914	0.11221
4484.10049	0.11771
4482.17185	0.12135
4480.24320	0.12139
4478.31455	0.11871
4476.38591	0.11397
4474.45726	0.10809
4472.52862	0.10240
4470.59997	0.09836
4468.67133	0.09689
4466.74268	0.09817
4464.81404	0.10178
4462.88539	0.10682
4460.95675	0.11168
4459.02810	0.11470
4457.09946	0.11499
4455.17081	0.11266
4453.24216	0.10864
4451.31352	0.10448
4449.38487	0.10167
4447.45623	0.10073
4445.52758	0.10106
4443.59894	0.10174
4441.67029	0.10205
4439.74165	0.10155
4437.81300	0.10018
4435.88436	0.09840
4433.95571	0.09686
4432.02707	0.09635
4430.09842	0.09778
4428.16978	0.10151
4426.24113	0.10663
4424.31248	0.11118
4422.38384	0.11328
4420.45519	0.11206
4418.52655	0.10811
4416.59790	0.10324
4414.66926	0.09945
4412.74061	0.09754
4410.81197	0.09700
4408.88332	0.09702
4406.95468	0.09718
4405.02603	0.09772
4403.09739	0.09925
4401.16874	0.10197
4399.24009	0.10502
4397.31145	0.10706
4395.38280	0.10755
4393.45416	0.10702
4391.52551	0.10633
4389.59687	0.10614
4387.66822	0.10682
4385.73958	0.10804
4383.81093	0.10875
4381.88229	0.10815
4379.95364	0.10635
4378.02500	0.10392
4376.09635	0.10133
4374.16770	0.09902
4372.23906	0.09755
4370.31041	0.09725
4368.38177	0.09803
4366.45312	0.09941
4364.52448	0.10060
4362.59583	0.10100
4360.66719	0.10085
4358.73854	0.10117
4356.80990	0.10297
4354.88125	0.10662
4352.95261	0.11150
4351.02396	0.11595
4349.09531	0.11815
4347.16667	0.11740
4345.23802	0.11458
4343.30938	0.11136
4341.38073	0.10928
4339.45209	0.10902
4337.52344	0.10999
4335.59480	0.11082
4333.66615	0.11058
4331.73751	0.10936
4329.80886	0.10801
4327.88022	0.10761
4325.95157	0.10883
4324.02292	0.11134
4322.09428	0.11393
4320.16563	0.11544
4318.23699	0.11551
4316.30834	0.11464
4314.37970	0.11381
4312.45105	0.11376
4310.52241	0.11436
4308.59376	0.11456
4306.66512	0.11325
4304.73647	0.11014
4302.80783	0.10595
4300.87918	0.10201
4298.95054	0.09959
4297.02189	0.09925
4295.09324	0.10056
4293.16460	0.10269
4291.23595	0.10520
4289.30731	0.10812
4287.37866	0.11147
4285.45002	0.11487
4283.52137	0.11756
4281.59273	0.11867
4279.66408	0.11783
4277.73544	0.11547
4275.80679	0.11264
4273.87815	0.11052
4271.94950	0.11003
4270.02085	0.11136
4268.09221	0.11368
4266.16356	0.11568
4264.23492	0.11648
4262.30627	0.11573
4260.37763	0.11339
4258.44898	0.11024
4256.52034	0.10790
4254.59169	0.10759
4252.66305	0.10927
4250.73440	0.11215
4248.80576	0.11532
4246.87711	0.11763
4244.94846	0.11808
4243.01982	0.11656
4241.09117	0.11379
4239.16253	0.11062
4237.23388	0.10783
4235.30524	0.10626
4233.37659	0.10641
4231.44795	0.10799
4229.51930	0.11013
4227.59066	0.11186
4225.66201	0.11229
4223.73337	0.11085
4221.80472	0.10777
4219.87607	0.10420
4217.94743	0.10133
4216.01878	0.09990
4214.09014	0.10017
4212.16149	0.10191
4210.23285	0.10422
4208.30420	0.10582
4206.37556	0.10605
4204.44691	0.10509
4202.51827	0.10352
4200.58962	0.10196
4198.66098	0.10123
4196.73233	0.10193
4194.80368	0.10399
4192.87504	0.10682
4190.94639	0.10980
4189.01775	0.11240
4187.08910	0.11403
4185.16046	0.11428
4183.23181	0.11319
4181.30317	0.11121
4179.37452	0.10889
4177.44588	0.10670
4175.51723	0.10505
4173.58859	0.10422
4171.65994	0.10408
4169.73130	0.10434
4167.80265	0.10482
4165.87400	0.10557
4163.94536	0.10663
4162.01671	0.10792
4160.08807	0.10936
4158.15942	0.11067
4156.23078	0.11114
4154.30213	0.11004
4152.37349	0.10728
4150.44484	0.10354
4148.51620	0.09989
4146.58755	0.09752
4144.65891	0.09742
4142.73026	0.09964
4140.80161	0.10306
4138.87297	0.10616
4136.94432	0.10807
4135.01568	0.10871
4133.08703	0.10842
4131.15839	0.10783
4129.22974	0.10754
4127.30110	0.10754
4125.37245	0.10717
4123.44381	0.10596
4121.51516	0.10421
4119.58652	0.10269
4117.65787	0.10213
4115.72922	0.10294
4113.80058	0.10504
4111.87193	0.10755
4109.94329	0.10920
4108.01464	0.10904
4106.08600	0.10694
4104.15735	0.10367
4102.22871	0.10051
4100.30006	0.09879
4098.37142	0.09928
4096.44277	0.10172
4094.51413	0.10512
4092.58548	0.10835
4090.65683	0.11063
4088.72819	0.11181
4086.79954	0.11217
4084.87090	0.11214
4082.94225	0.11202
4081.01361	0.11191
4079.08496	0.11176
4077.15632	0.11149
4075.22767	0.11108
4073.29903	0.11058
4071.37038	0.11005
4069.44174	0.10963
4067.51309	0.10976
4065.58444	0.11098
4063.65580	0.11329
4061.72715	0.11594
4059.79851	0.11784
4057.86986	0.11812
4055.94122	0.11647
4054.01257	0.11347
4052.08393	0.11051
4050.15528	0.10883
4048.22664	0.10863
4046.29799	0.10919
4044.36935	0.10944
4042.44070	0.10861
4040.51206	0.10640
4038.58341	0.10305
4036.65476	0.09941
4034.72612	0.09646
4032.79747	0.09478
4030.86883	0.09440
4028.94018	0.09513
4027.01154	0.09684
4025.08289	0.09928
4023.15425	0.10205
4021.22560	0.10502
4019.29696	0.10828
4017.36831	0.11160
4015.43967	0.11421
4013.51102	0.11539
4011.58237	0.11479
4009.65373	0.11249
4007.72508	0.10897
4005.79644	0.10515
4003.86779	0.10210
4001.93915	0.10051
4000.01050	0.10048
3998.08186	0.10162
3996.15321	0.10328
3994.22457	0.10482
3992.29592	0.10584
3990.36728	0.10629
3988.43863	0.10642
3986.50998	0.10662
3984.58134	0.10718
3982.65269	0.10813
3980.72405	0.10923
3978.79540	0.11014
3976.86676	0.11056
3974.93811	0.11022
3973.00947	0.10903
3971.08082	0.10709
3969.15218	0.10477
3967.22353	0.10263
3965.29489	0.10126
3963.36624	0.10119
3961.43759	0.10267
3959.50895	0.10550
3957.58030	0.10905
3955.65166	0.11235
3953.72301	0.11445
3951.79437	0.11484
3949.86572	0.11362
3947.93708	0.11145
3946.00843	0.10915
3944.07979	0.10735
3942.15114	0.10623
3940.22250	0.10551
3938.29385	0.10471
3936.36521	0.10358
3934.43656	0.10228
3932.50791	0.10118
3930.57927	0.10059
3928.65062	0.10058
3926.72198	0.10097
3924.79333	0.10158
3922.86469	0.10227
3920.93604	0.10307
3919.00740	0.10412
3917.07875	0.10556
3915.15011	0.10735
3913.22146	0.10918
3911.29282	0.11056
3909.36417	0.11106
3907.43552	0.11050
3905.50688	0.10903
3903.57823	0.10707
3901.64959	0.10518
3899.72094	0.10373
3897.79230	0.10272
3895.86365	0.10177
3893.93501	0.10040
3892.00636	0.09840
3890.07772	0.09600
3888.14907	0.09383
3886.22043	0.09267
3884.29178	0.09303
3882.36313	0.09485
3880.43449	0.09746
3878.50584	0.09987
3876.57720	0.10124
3874.64855	0.10128
3872.71991	0.10035
3870.79126	0.09932
3868.86262	0.09910
3866.93397	0.10009
3865.00533	0.10191
3863.07668	0.10363
3861.14804	0.10423
3859.21939	0.10311
3857.29074	0.10037
3855.36210	0.09677
3853.43345	0.09347
3851.50481	0.09142
3849.57616	0.09100
3847.64752	0.09203
3845.71887	0.09396
3843.79023	0.09605
3841.86158	0.09758
3839.93294	0.09799
3838.00429	0.09710
3836.07565	0.09507
3834.14700	0.09233
3832.21835	0.08947
3830.28971	0.08709
3828.36106	0.08558
3826.43242	0.08501
3824.50377	0.08527
3822.57513	0.08621
3820.64648	0.08781
3818.71784	0.09002
3816.78919	0.09269
3814.86055	0.09545
3812.93190	0.09771
3811.00326	0.09889
3809.07461	0.09862
3807.14597	0.09707
3805.21732	0.09483
3803.28867	0.09274
3801.36003	0.09157
3799.43138	0.09175
3797.50274	0.09323
3795.57409	0.09559
3793.64545	0.09820
3791.71680	0.10050
3789.78816	0.10202
3787.85951	0.10247
3785.93087	0.10186
3784.00222	0.10044
3782.07358	0.09861
3780.14493	0.09688
3778.21628	0.09577
3776.28764	0.09570
3774.35899	0.09673
3772.43035	0.09851
3770.50170	0.10043
3768.57306	0.10191
3766.64441	0.10255
3764.71577	0.10236
3762.78712	0.10171
3760.85848	0.10120
3758.92983	0.10126
3757.00119	0.10175
3755.07254	0.10207
3753.14389	0.10146
3751.21525	0.09937
3749.28660	0.09568
3747.35796	0.09089
3745.42931	0.08616
3743.50067	0.08291
3741.57202	0.08228
3739.64338	0.08471
3737.71473	0.08974
3735.78609	0.09608
3733.85744	0.10206
3731.92880	0.10635
3730.00015	0.10848
3728.07150	0.10890
3726.14286	0.10852
3724.21421	0.10815
3722.28557	0.10809
3720.35692	0.10822
3718.42828	0.10836
3716.49963	0.10859
3714.57099	0.10929
3712.64234	0.11083
3710.71370	0.11332
3708.78505	0.11652
3706.85641	0.11999
3704.92776	0.12324
3702.99911	0.12589
3701.07047	0.12771
3699.14182	0.12856
3697.21318	0.12856
3695.28453	0.12815
3693.35589	0.12804
3691.42724	0.12907
3689.49860	0.13184
3687.56995	0.13647
3685.64131	0.14252
3683.71266	0.14912
3681.78402	0.15533
3679.85537	0.16054
3677.92673	0.16460
3675.99808	0.16786
3674.06943	0.17098
3672.14079	0.17477
3670.21214	0.17993
3668.28350	0.18670
3666.35485	0.19480
3664.42621	0.20361
3662.49756	0.21241
3660.56892	0.22061
3658.64027	0.22797
3656.71163	0.23474
3654.78298	0.24160
3652.85434	0.24927
3650.92569	0.25834
3648.99704	0.26910
3647.06840	0.28160
3645.13975	0.29560
3643.21111	0.31073
3641.28246	0.32660
3639.35382	0.34283
3637.42517	0.35886
3635.49653	0.37396
3633.56788	0.38745
3631.63924	0.39897
3629.71059	0.40883
3627.78195	0.41801
3625.85330	0.42801
3623.92465	0.44019
3621.99601	0.45518
3620.06736	0.47256
3618.13872	0.49117
3616.21007	0.50972
3614.28143	0.52747
3612.35278	0.54450
3610.42414	0.56146
3608.49549	0.57895
3606.56685	0.59706
3604.63820	0.61526
3602.70956	0.63267
3600.78091	0.64857
3598.85226	0.66284
3596.92362	0.67606
3594.99497	0.68929
3593.06633	0.70357
3591.13768	0.71965
3589.20904	0.73775
3587.28039	0.75756
3585.35175	0.77830
3583.42310	0.79890
3581.49446	0.81833
3579.56581	0.83574
3577.63717	0.85074
3575.70852	0.86351
3573.77988	0.87484
3571.85123	0.88599
3569.92258	0.89833
3567.99394	0.91298
3566.06529	0.93042
3564.13665	0.95036
3562.20800	0.97177
3560.27936	0.99330
3558.35071	1.01372
3556.42207	1.03230
3554.49342	1.04900
3552.56478	1.06443
3550.63613	1.07954
3548.70749	1.09523
3546.77884	1.11203
3544.85019	1.12990
3542.92155	1.14832
3540.99290	1.16666
3539.06426	1.18435
3537.13561	1.20117
3535.20697	1.21727
3533.27832	1.23301
3531.34968	1.24875
3529.42103	1.26468
3527.49239	1.28067
3525.56374	1.29643
3523.63510	1.31165
3521.70645	1.32606
3519.77780	1.33961
3517.84916	1.35259
3515.92051	1.36559
3513.99187	1.37926
3512.06322	1.39400
3510.13458	1.40986
3508.20593	1.42639
3506.27729	1.44277
3504.34864	1.45813
3502.42000	1.47205
3500.49135	1.48478
3498.56271	1.49703
3496.63406	1.50965
3494.70541	1.52315
3492.77677	1.53750
3490.84812	1.55207
3488.91948	1.56609
3486.99083	1.57913
3485.06219	1.59130
3483.13354	1.60302
3481.20490	1.61473
3479.27625	1.62657
3477.34761	1.63836
3475.41896	1.64974
3473.49032	1.66046
3471.56167	1.67058
3469.63302	1.68051
3467.70438	1.69079
3465.77573	1.70191
3463.84709	1.71410
3461.91844	1.72732
3459.98980	1.74123
3458.06115	1.75528
3456.13251	1.76876
3454.20386	1.78102
3452.27522	1.79161
3450.34657	1.80042
3448.41793	1.80765
3446.48928	1.81382
3444.56064	1.81967
3442.63199	1.82595
3440.70334	1.83318
3438.77470	1.84148
3436.84605	1.85050
3434.91741	1.85959
3432.98876	1.86807
3431.06012	1.87561
3429.13147	1.88239
3427.20283	1.88894
3425.27418	1.89591
3423.34554	1.90371
3421.41689	1.91218
3419.48825	1.92073
3417.55960	1.92856
3415.63095	1.93507
3413.70231	1.94004
3411.77366	1.94367
3409.84502	1.94657
3407.91637	1.94946
3405.98773	1.95286
3404.05908	1.95691
3402.13044	1.96140
3400.20179	1.96590
3398.27315	1.96989
3396.34450	1.97308
3394.41586	1.97554
3392.48721	1.97768
3390.55856	1.98008
3388.62992	1.98323
3386.70127	1.98725
3384.77263	1.99175
3382.84398	1.99595
3380.91534	1.99892
3378.98669	2.00000
3377.05805	1.99906
3375.12940	1.99663
3373.20076	1.99371
3371.27211	1.99145
3369.34347	1.99067
3367.41482	1.99149
3365.48617	1.99325
3363.55753	1.99479
3361.62888	1.99493
3359.70024	1.99301
3357.77159	1.98921
3355.84295	1.98446
3353.91430	1.97993
3351.98566	1.97650
3350.05701	1.97432
3348.12837	1.97276
3346.19972	1.97084
3344.27108	1.96785
3342.34243	1.96373
3340.41378	1.95911
3338.48514	1.95490
3336.55649	1.95185
3334.62785	1.95010
3332.69920	1.94909
3330.77056	1.94790
3328.84191	1.94580
3326.91327	1.94269
3324.98462	1.93916
3323.05598	1.93611
3321.12733	1.93420
3319.19869	1.93347
3317.27004	1.93332
3315.34140	1.93292
3313.41275	1.93160
3311.48410	1.92921
3309.55546	1.92612
3307.62681	1.92296
3305.69817	1.92012
3303.76952	1.91767
3301.84088	1.91547
3299.91223	1.91341
3297.98359	1.91154
3296.05494	1.90998
3294.12630	1.90882
3292.19765	1.90803
3290.26901	1.90733
3288.34036	1.90620
3286.41171	1.90415
3284.48307	1.90092
3282.55442	1.89653
3280.62578	1.89123
3278.69713	1.88539
3276.76849	1.87945
3274.83984	1.87375
3272.91120	1.86844
3270.98255	1.86343
3269.05391	1.85854
3267.12526	1.85352
3265.19662	1.84804
3263.26797	1.84181
3261.33932	1.83474
3259.41068	1.82697
3257.48203	1.81892
3255.55339	1.81114
3253.62474	1.80415
3251.69610	1.79813
3249.76745	1.79281
3247.83881	1.78752
3245.91016	1.78146
3243.98152	1.77417
3242.05287	1.76578
3240.12423	1.75699
3238.19558	1.74873
3236.26693	1.74168
3234.33829	1.73593
3232.40964	1.73083
3230.48100	1.72537
3228.55235	1.71877
3226.62371	1.71083
3224.69506	1.70197
3222.76642	1.69294
3220.83777	1.68443
3218.90913	1.67664
3216.98048	1.66919
3215.05184	1.66152
3213.12319	1.65324
3211.19455	1.64441
3209.26590	1.63537
3207.33725	1.62656
3205.40861	1.61826
3203.47996	1.61035
3201.55132	1.60243
3199.62267	1.59410
3197.69403	1.58520
3195.76538	1.57595
3193.83674	1.56681
3191.90809	1.55819
3189.97945	1.55033
3188.05080	1.54308
3186.12216	1.53606
3184.19351	1.52878
3182.26486	1.52090
3180.33622	1.51238
3178.40757	1.50338
3176.47893	1.49421
3174.55028	1.48518
3172.62164	1.47648
3170.69299	1.46822
3168.76435	1.46030
3166.83570	1.45233
3164.90706	1.44369
3162.97841	1.43383
3161.04977	1.42256
3159.12112	1.41025
3157.19247	1.39781
3155.26383	1.38639
3153.33518	1.37684
3151.40654	1.36924
3149.47789	1.36298
3147.54925	1.35717
3145.62060	1.35108
3143.69196	1.34439
3141.76331	1.33717
3139.83467	1.32960
3137.90602	1.32171
3135.97738	1.31333
3134.04873	1.30427
3132.12008	1.29460
3130.19144	1.28472
3128.26279	1.27522
3126.33415	1.26660
3124.40550	1.25904
3122.47686	1.25236
3120.54821	1.24612
3118.61957	1.23988
3116.69092	1.23331
3114.76228	1.22635
3112.83363	1.21911
3110.90499	1.21182
3108.97634	1.20469
3107.04769	1.19792
3105.11905	1.19167
3103.19040	1.18608
3101.26176	1.18119
3099.33311	1.17691
3097.40447	1.17300
3095.47582	1.16905
3093.54718	1.16464
3091.61853	1.15943
3089.68989	1.15327
3087.76124	1.14621
3085.83260	1.13853
3083.90395	1.13065
3081.97531	1.12309
3080.04666	1.11637
3078.11801	1.11086
3076.18937	1.10652
3074.26072	1.10280
3072.33208	1.09881
3070.40343	1.09356
3068.47479	1.08643
3066.54614	1.07750
3064.61750	1.06759
3062.68885	1.05789
3060.76021	1.04942
3058.83156	1.04255
3056.90292	1.03691
3054.97427	1.03157
3053.04562	1.02557
3051.11698	1.01843
3049.18833	1.01038
3047.25969	1.00213
3045.33104	0.99437
3043.40240	0.98746
3041.47375	0.98123
3039.54511	0.97519
3037.61646	0.96891
3035.68782	0.96232
3033.75917	0.95573
3031.83053	0.94955
3029.90188	0.94397
3027.97323	0.93891
3026.04459	0.93407
3024.11594	0.92926
3022.18730	0.92447
3020.25865	0.91994
3018.33001	0.91587
3016.40136	0.91217
3014.47272	0.90844
3012.54407	0.90418
3010.61543	0.89912
3008.68678	0.89338
3006.75814	0.88756
3004.82949	0.88244
3002.90084	0.87871
3000.97220	0.87663
2999.04355	0.87605
2997.11491	0.87656
2995.18626	0.87768
2993.25762	0.87901
2991.32897	0.88038
2989.40033	0.88173
2987.47168	0.88309
2985.54304	0.88448
2983.61439	0.88595
2981.68575	0.88753
2979.75710	0.88928
2977.82845	0.89140
2975.89981	0.89419
2973.97116	0.89781
2972.04252	0.90215
2970.11387	0.90677
2968.18523	0.91103
2966.25658	0.91429
2964.32794	0.91619
2962.39929	0.91685
2960.47065	0.91682
2958.54200	0.91667
2956.61336	0.91656
2954.68471	0.91633
2952.75607	0.91588
2950.82742	0.91533
2948.89877	0.91501
2946.97013	0.91530
2945.04148	0.91655
2943.11284	0.91887
2941.18419	0.92199
2939.25555	0.92546
2937.32690	0.92912
2935.39826	0.93301
2933.46961	0.93697
2931.54097	0.94038
2929.61232	0.94247
2927.68368	0.94260
2925.75503	0.94023
2923.82638	0.93493
2921.89774	0.92657
2919.96909	0.91539
2918.04045	0.90177
2916.11180	0.88614
2914.18316	0.86930
2912.25451	0.85246
2910.32587	0.83692
2908.39722	0.82363
2906.46858	0.81290
2904.53993	0.80438
2902.61129	0.79726
2900.68264	0.79058
2898.75399	0.78369
2896.82535	0.77654
2894.89670	0.76956
2892.96806	0.76329
2891.03941	0.75786
2889.11077	0.75291
2887.18212	0.74789
2885.25348	0.74255
2883.32483	0.73724
2881.39619	0.73269
2879.46754	0.72958
2877.53890	0.72806
2875.61025	0.72747
2873.68160	0.72642
2871.75296	0.72354
2869.82431	0.71838
2867.89567	0.71175
2865.96702	0.70529
2864.03838	0.70076
2862.10973	0.69928
2860.18109	0.70079
2858.25244	0.70408
2856.32380	0.70716
2854.39515	0.70796
2852.46651	0.70495
2850.53786	0.69764
2848.60922	0.68657
2846.68057	0.67301
2844.75192	0.65869
2842.82328	0.64529
2840.89463	0.63381
2838.96599	0.62430
2837.03734	0.61614
2835.10870	0.60862
2833.18005	0.60124
2831.25141	0.59384
2829.32276	0.58651
2827.39412	0.57960
2825.46547	0.57342
2823.53683	0.56805
2821.60818	0.56342
2819.67953	0.55955
2817.75089	0.55645
2815.82224	0.55399
2813.89360	0.55184
2811.96495	0.54966
2810.03631	0.54724
2808.10766	0.54448
2806.17902	0.54139
2804.25037	0.53799
2802.32173	0.53431
2800.39308	0.53037
2798.46444	0.52619
2796.53579	0.52185
2794.60714	0.51758
2792.67850	0.51373
2790.74985	0.51036
2788.82121	0.50716
2786.89256	0.50369
2784.96392	0.49983
2783.03527	0.49582
2781.10663	0.49213
2779.17798	0.48927
2777.24934	0.48760
2775.32069	0.48702
2773.39205	0.48698
2771.46340	0.48673
2769.53475	0.48574
2767.60611	0.48385
2765.67746	0.48118
2763.74882	0.47803
2761.82017	0.47485
2759.89153	0.47204
2757.96288	0.46976
2756.03424	0.46782
2754.10559	0.46587
2752.17695	0.46366
2750.24830	0.46112
2748.31966	0.45830
2746.39101	0.45543
2744.46236	0.45268
2742.53372	0.45011
2740.60507	0.44769
2738.67643	0.44543
2736.74778	0.44337
2734.81914	0.44156
2732.89049	0.44001
2730.96185	0.43871
2729.03320	0.43753
2727.10456	0.43622
2725.17591	0.43459
2723.24727	0.43256
2721.31862	0.43011
2719.38998	0.42732
2717.46133	0.42444
2715.53268	0.42179
2713.60404	0.41948
2711.67539	0.41733
2709.74675	0.41507
2707.81810	0.41261
2705.88946	0.41006
2703.96081	0.40771
2702.03217	0.40582
2700.10352	0.40444
2698.17488	0.40327
2696.24623	0.40175
2694.31759	0.39937
2692.38894	0.39610
2690.46029	0.39233
2688.53165	0.38865
2686.60300	0.38554
2684.67436	0.38320
2682.74571	0.38154
2680.81707	0.38023
2678.88842	0.37896
2676.95978	0.37768
2675.03113	0.37651
2673.10249	0.37562
2671.17384	0.37507
2669.24520	0.37469
2667.31655	0.37409
2665.38790	0.37290
2663.45926	0.37091
2661.53061	0.36811
2659.60197	0.36473
2657.67332	0.36119
2655.74468	0.35783
2653.81603	0.35473
2651.88739	0.35179
2649.95874	0.34887
2648.03010	0.34586
2646.10145	0.34267
2644.17281	0.33938
2642.24416	0.33622
2640.31551	0.33346
2638.38687	0.33122
2636.45822	0.32941
2634.52958	0.32787
2632.60093	0.32643
2630.67229	0.32497
2628.74364	0.32344
2626.81500	0.32197
2624.88635	0.32079
2622.95771	0.32003
2621.02906	0.31940
2619.10042	0.31835
2617.17177	0.31652
2615.24312	0.31390
2613.31448	0.31084
2611.38583	0.30807
2609.45719	0.30657
2607.52854	0.30692
2605.59990	0.30874
2603.67125	0.31097
2601.74261	0.31244
2599.81396	0.31224
2597.88532	0.30992
2595.95667	0.30574
2594.02803	0.30060
2592.09938	0.29544
2590.17074	0.29088
2588.24209	0.28727
2586.31344	0.28488
2584.38480	0.28374
2582.45615	0.28368
2580.52751	0.28448
2578.59886	0.28579
2576.67022	0.28712
2574.74157	0.28798
2572.81293	0.28815
2570.88428	0.28774
2568.95564	0.28710
2567.02699	0.28660
2565.09835	0.28641
2563.16970	0.28642
2561.24105	0.28640
2559.31241	0.28616
2557.38376	0.28569
2555.45512	0.28516
2553.52647	0.28485
2551.59783	0.28484
2549.66918	0.28496
2547.74054	0.28500
2545.81189	0.28499
2543.88325	0.28502
2541.95460	0.28499
2540.02596	0.28463
2538.09731	0.28363
2536.16866	0.28186
2534.24002	0.27952
2532.31137	0.27718
2530.38273	0.27551
2528.45408	0.27484
2526.52544	0.27501
2524.59679	0.27556
2522.66815	0.27599
2520.73950	0.27611
2518.81086	0.27606
2516.88221	0.27593
2514.95357	0.27573
2513.02492	0.27550
2511.09627	0.27531
2509.16763	0.27501
2507.23898	0.27439
2505.31034	0.27328
2503.38169	0.27152
2501.45305	0.26898
2499.52440	0.26613
2497.59576	0.26420
2495.66711	0.26427
2493.73847	0.26659
2491.80982	0.27065
2489.88118	0.27548
2487.95253	0.27971
2486.02389	0.28221
2484.09524	0.28276
2482.16659	0.28201
2480.23795	0.28053
2478.30930	0.27868
2476.38066	0.27696
2474.45201	0.27592
2472.52337	0.27582
2470.59472	0.27666
2468.66608	0.27838
2466.73743	0.28033
2464.80879	0.28124
2462.88014	0.28024
2460.95150	0.27754
2459.02285	0.27416
2457.09420	0.27136
2455.16556	0.27045
2453.23691	0.27235
2451.30827	0.27666
2449.37962	0.28166
2447.45098	0.28532
2445.52233	0.28626
2443.59369	0.28406
2441.66504	0.27948
2439.73640	0.27423
2437.80775	0.27025
2435.87911	0.26868
2433.95046	0.26947
2432.02181	0.27162
2430.09317	0.27383
2428.16452	0.27537
2426.23588	0.27621
2424.30723	0.27646
2422.37859	0.27607
2420.44994	0.27492
2418.52130	0.27284
2416.59265	0.26982
2414.66401	0.26644
2412.73536	0.26406
2410.80672	0.26412
2408.87807	0.26712
2406.94942	0.27248
2405.02078	0.27878
2403.09213	0.28414
2401.16349	0.28690
2399.23484	0.28639
2397.30620	0.28298
2395.37755	0.27779
2393.44891	0.27220
2391.52026	0.26745
2389.59162	0.26435
2387.66297	0.26322
2385.73433	0.26416
2383.80568	0.26726
2381.87703	0.27242
2379.94839	0.27924
2378.01974	0.28688
2376.09110	0.29401
2374.16245	0.29892
2372.23381	0.29979
2370.30516	0.29540
2368.37652	0.28599
2366.44787	0.27353
2364.51923	0.26136
2362.59058	0.25295
2360.66194	0.25053
2358.73329	0.25414
2356.80465	0.26147
2354.87600	0.26892
2352.94735	0.27337
2351.01871	0.27365
2349.09006	0.27080
2347.16142	0.26698
2345.23277	0.26412
2343.30413	0.26329
2341.37548	0.26450
2339.44684	0.26705
2337.51819	0.27000
2335.58955	0.27258
2333.66090	0.27417
2331.73226	0.27417
2329.80361	0.27194
2327.87496	0.26740
2325.94632	0.26126
2324.01767	0.25490
2322.08903	0.24982
2320.16038	0.24707
2318.23174	0.24676
2316.30309	0.24818
2314.37445	0.25009
2312.44580	0.25129
2310.51716	0.25102
2308.58851	0.24910
2306.65987	0.24597
2304.73122	0.24236
2302.80257	0.23907
2300.87393	0.23669
2298.94528	0.23559
2297.01664	0.23598
2295.08799	0.23794
2293.15935	0.24140
2291.23070	0.24603
2289.30206	0.25129
2287.37341	0.25640
2285.44477	0.26046
2283.51612	0.26274
2281.58748	0.26283
2279.65883	0.26066
2277.73018	0.25634
2275.80154	0.25021
2273.87289	0.24298
2271.94425	0.23594
2270.01560	0.23087
2268.08696	0.22927
2266.15831	0.23136
2264.22967	0.23550
2262.30102	0.23856
2260.37238	0.23711
2258.44373	0.22902
2256.51509	0.21508
2254.58644	0.19926
2252.65779	0.18726
2250.72915	0.18361
2248.80050	0.18916
2246.87186	0.20045
2244.94321	0.21125
2243.01457	0.21570
2241.08592	0.21161
2239.15728	0.20165
2237.22863	0.19130
2235.29999	0.18498
2233.37134	0.18362
2231.44270	0.18516
2229.51405	0.18654
2227.58541	0.18581
2225.65676	0.18340
2223.72811	0.18108
2221.79947	0.17941
2219.87082	0.17662
2217.94218	0.17064
2216.01353	0.16177
2214.08489	0.15241
2212.15624	0.14487
2210.22760	0.14022
2208.29895	0.13834
2206.37031	0.13837
2204.44166	0.13975
2202.51302	0.14315
2200.58437	0.14950
2198.65572	0.15753
2196.72708	0.16333
2194.79843	0.16264
2192.86979	0.15355
2190.94114	0.13779
2189.01250	0.11989
2187.08385	0.10484
2185.15521	0.09595
2183.22656	0.09424
2181.29792	0.09889
2179.36927	0.10726
2177.44063	0.11487
2175.51198	0.11622
2173.58333	0.10765
2171.65469	0.09061
2169.72604	0.07177
2167.79740	0.05912
2165.86875	0.05799
2163.94011	0.06935
2162.01146	0.08862
2160.08282	0.10574
2158.15417	0.11059
2156.22553	0.09954
2154.29688	0.07580
2152.36824	0.04569
2150.43959	0.01726
2148.51094	0.00000
2146.58230	0.00086
2144.65365	0.01956
2142.72501	0.04959
2140.79636	0.08279
2138.86772	0.11213
2136.93907	0.13336
2135.01043	0.14632
2133.08178	0.15434
2131.15314	0.16095
2129.22449	0.16699
2127.29585	0.17074
2125.36720	0.17023
2123.43856	0.16510
2121.50991	0.15705
2119.58126	0.14883
2117.65262	0.14270
2115.72397	0.13956
2113.79533	0.13921
2111.86668	0.14100
2109.93804	0.14463
2108.00939	0.15027
2106.08075	0.15781
2104.15210	0.16603
2102.22346	0.17260
2100.29481	0.17526
2098.36617	0.17304
2096.43752	0.16675
2094.50887	0.15880
2092.58023	0.15225
2090.65158	0.14937
2088.72294	0.15074
2086.79429	0.15522
2084.86565	0.16038
2082.93700	0.16322
2081.00836	0.16118
2079.07971	0.15331
2077.15107	0.14111
2075.22242	0.12842
2073.29378	0.12032
2071.36513	0.12103
2069.43648	0.13202
2067.50784	0.15119
2065.57919	0.17352
2063.65055	0.19295
2061.72190	0.20465
2059.79326	0.20654
2057.86461	0.19923
2055.93597	0.18499
2054.00732	0.16668
2052.07868	0.14723
2050.15003	0.12931
2048.22139	0.11502
2046.29274	0.10578
2044.36409	0.10220
2042.43545	0.10352
2040.50680	0.10719
2038.57816	0.10971
2036.64951	0.10845
2034.72087	0.10276
2032.79222	0.09392
2030.86358	0.08461
2028.93493	0.07807
2027.00629	0.07650
2025.07764	0.07985
2023.14900	0.08604
2021.22035	0.09228
2019.29170	0.09665
2017.36306	0.09846
2015.43441	0.09822
2013.50577	0.09764
2011.57712	0.09900
2009.64848	0.10410
2007.71983	0.11359
2005.79119	0.12693
2003.86254	0.14226
2001.93390	0.15620
2000.00525	0.16462
1998.07661	0.16440
1996.14796	0.15493
1994.21932	0.13858
1992.29067	0.11994
1990.36202	0.10401
1988.43338	0.09400
1986.50473	0.09021
1984.57609	0.09097
1982.64744	0.09443
1980.71880	0.09988
1978.79015	0.10795
1976.86151	0.11965
1974.93286	0.13444
1973.00422	0.14893
1971.07557	0.15777
1969.14693	0.15667
1967.21828	0.14518
1965.28963	0.12727
1963.36099	0.10970
1961.43234	0.09910
1959.50370	0.09910
1957.57505	0.10882
1955.64641	0.12381
1953.71776	0.13853
1951.78912	0.14880
1949.86047	0.15289
1947.93183	0.15159
1946.00318	0.14745
1944.07454	0.14353
1942.14589	0.14206
1940.21724	0.14365
1938.28860	0.14733
1936.35995	0.15120
1934.43131	0.15347
1932.50266	0.15334
1930.57402	0.15131
1928.64537	0.14878
1926.71673	0.14711
1924.78808	0.14705
1922.85944	0.14870
1920.93079	0.15168
1919.00215	0.15526
1917.07350	0.15848
1915.14485	0.16041
1913.21621	0.16039
1911.28756	0.15808
1909.35892	0.15374
1907.43027	0.14836
1905.50163	0.14337
1903.57298	0.14014
1901.64434	0.13949
1899.71569	0.14155
1897.78705	0.14580
1895.85840	0.15113
1893.92976	0.15613
1892.00111	0.15948
1890.07246	0.16040
1888.14382	0.15882
1886.21517	0.15538
1884.28653	0.15120
1882.35788	0.14754
1880.42924	0.14538
1878.50059	0.14513
1876.57195	0.14655
1874.64330	0.14905
1872.71466	0.15203
1870.78601	0.15504
1868.85737	0.15787
1866.92872	0.16039
1865.00008	0.16240
1863.07143	0.16354
1861.14278	0.16339
1859.21414	0.16174
1857.28549	0.15879
1855.35685	0.15522
1853.42820	0.15199
1851.49956	0.14986
1849.57091	0.14907
1847.64227	0.14936
1845.71362	0.15017
1843.78498	0.15100
1841.85633	0.15171
1839.92769	0.15250
1837.99904	0.15369
1836.07039	0.15536
1834.14175	0.15719
1832.21310	0.15867
1830.28446	0.15943
1828.35581	0.15941
1826.42717	0.15897
1824.49852	0.15861
1822.56988	0.15879
1820.64123	0.15969
1818.71259	0.16122
1816.78394	0.16315
1814.85530	0.16523
1812.92665	0.16726
1810.99800	0.16912
1809.06936	0.17069
1807.14071	0.17192
1805.21207	0.17282
1803.28342	0.17343
1801.35478	0.17390
1799.42613	0.17447
1797.49749	0.17537
1795.56884	0.17686
1793.64020	0.17914
1791.71155	0.18229
1789.78291	0.18617
1787.85426	0.19045
1785.92561	0.19475
1783.99697	0.19871
1782.06832	0.20219
1780.13968	0.20526
1778.21103	0.20811
1776.28239	0.21100
1774.35374	0.21409
1772.42510	0.21751
1770.49645	0.22133
1768.56781	0.22559
1766.63916	0.23036
1764.71052	0.23564
1762.78187	0.24128
1760.85322	0.24703
1758.92458	0.25268
1756.99593	0.25823
1755.06729	0.26393
1753.13864	0.27015
1751.21000	0.27723
1749.28135	0.28529
1747.35271	0.29413
1745.42406	0.30328
1743.49542	0.31232
1741.56677	0.32111
1739.63813	0.32978
1737.70948	0.33868
1735.78084	0.34815
1733.85219	0.35841
1731.92354	0.36941
1729.99490	0.38083
1728.06625	0.39230
1726.13761	0.40356
1724.20896	0.41455
1722.28032	0.42548
1720.35167	0.43668
1718.42303	0.44855
1716.49438	0.46125
1714.56574	0.47459
1712.63709	0.48811
1710.70845	0.50135
1708.77980	0.51420
1706.85115	0.52710
1704.92251	0.54105
1702.99386	0.55735
1701.06522	0.57706
1699.13657	0.60051
1697.20793	0.62704
1695.27928	0.65533
1693.35064	0.68389
1691.42199	0.71176
1689.49335	0.73875
1687.56470	0.76546
1685.63606	0.79281
1683.70741	0.82150
1681.77876	0.85159
1679.85012	0.88257
1677.92147	0.91372
1675.99283	0.94454
1674.06418	0.97493
1672.13554	1.00522
1670.20689	1.03589
1668.27825	1.06718
1666.34960	1.09869
1664.42096	1.12944
1662.49231	1.15818
1660.56367	1.18382
1658.63502	1.20580
1656.70637	1.22426
1654.77773	1.23994
1652.84908	1.25384
1650.92044	1.26675
1648.99179	1.27896
1647.06315	1.29036
1645.13450	1.30061
1643.20586	1.30932
1641.27721	1.31623
1639.34857	1.32126
1637.41992	1.32445
1635.49128	1.32581
1633.56263	1.32525
1631.63399	1.32266
1629.70534	1.31805
1627.77669	1.31163
1625.84805	1.30391
1623.91940	1.29569
1621.99076	1.28796
1620.06211	1.28173
1618.13347	1.27773
1616.20482	1.27632
1614.27618	1.27740
1612.34753	1.28045
1610.41889	1.28473
1608.49024	1.28945
1606.56160	1.29391
1604.63295	1.29752
1602.70430	1.29970
1600.77566	1.29982
1598.84701	1.29725
1596.91837	1.29142
1594.98972	1.28202
1593.06108	1.26915
1591.13243	1.25333
1589.20379	1.23542
1587.27514	1.21627
1585.34650	1.19657
1583.41785	1.17676
1581.48921	1.15703
1579.56056	1.13749
1577.63191	1.11833
1575.70327	1.09984
1573.77462	1.08234
1571.84598	1.06590
1569.91733	1.05024
1567.98869	1.03487
1566.06004	1.01932
1564.13140	1.00336
1562.20275	0.98719
1560.27411	0.97131
1558.34546	0.95627
1556.41682	0.94226
1554.48817	0.92888
1552.55952	0.91528
1550.63088	0.90043
1548.70223	0.88360
1546.77359	0.86462
1544.84494	0.84397
1542.91630	0.82262
1540.98765	0.80171
1539.05901	0.78209
1537.13036	0.76421
1535.20172	0.74806
1533.27307	0.73345
1531.34443	0.72021
1529.41578	0.70834
1527.48713	0.69807
1525.55849	0.68968
1523.62984	0.68331
1521.70120	0.67875
1519.77255	0.67533
1517.84391	0.67198
1515.91526	0.66749
1513.98662	0.66082
1512.05797	0.65145
1510.12933	0.63942
1508.20068	0.62529
1506.27204	0.60991
1504.34339	0.59405
1502.41475	0.57821
1500.48610	0.56266
1498.55745	0.54758
1496.62881	0.53317
1494.70016	0.51971
1492.77152	0.50751
1490.84287	0.49689
1488.91423	0.48815
1486.98558	0.48153
1485.05694	0.47727
1483.12829	0.47578
1481.19965	0.47757
1479.27100	0.48317
1477.34236	0.49289
1475.41371	0.50666
1473.48506	0.52385
1471.55642	0.54318
1469.62777	0.56293
1467.69913	0.58125
1465.77048	0.59664
1463.84184	0.60814
1461.91319	0.61555
1459.98455	0.61926
1458.05590	0.62007
1456.12726	0.61880
1454.19861	0.61605
1452.26997	0.61217
1450.34132	0.60733
1448.41267	0.60170
1446.48403	0.59560
1444.55538	0.58965
1442.62674	0.58475
1440.69809	0.58189
1438.76945	0.58207
1436.84080	0.58604
1434.91216	0.59421
1432.98351	0.60645
1431.05487	0.62215
1429.12622	0.64029
1427.19758	0.65964
1425.26893	0.67898
1423.34028	0.69736
1421.41164	0.71426
1419.48299	0.72959
1417.55435	0.74361
1415.62570	0.75666
1413.69706	0.76901
1411.76841	0.78079
1409.83977	0.79188
1407.91112	0.80199
1405.98248	0.81079
1404.05383	0.81805
1402.12519	0.82362
1400.19654	0.82746
1398.26789	0.82962
1396.33925	0.83020
1394.41060	0.82930
1392.48196	0.82703
1390.55331	0.82352
1388.62467	0.81892
1386.69602	0.81334
1384.76738	0.80684
1382.83873	0.79937
1380.91009	0.79086
1378.98144	0.78129
1377.05280	0.77071
1375.12415	0.75935
1373.19551	0.74759
1371.26686	0.73584
1369.33821	0.72443
1367.40957	0.71360
1365.48092	0.70344
1363.55228	0.69395
1361.62363	0.68506
1359.69499	0.67665
1357.76634	0.66858
1355.83770	0.66068
1353.90905	0.65279
1351.98041	0.64482
1350.05176	0.63679
1348.12312	0.62884
1346.19447	0.62118
1344.26582	0.61400
1342.33718	0.60742
1340.40853	0.60147
1338.47989	0.59614
1336.55124	0.59136
1334.62260	0.58704
1332.69395	0.58302
1330.76531	0.57913
1328.83666	0.57517
1326.90802	0.57101
1324.97937	0.56659
1323.05073	0.56198
1321.12208	0.55731
1319.19343	0.55273
1317.26479	0.54837
1315.33614	0.54431
1313.40750	0.54053
1311.47885	0.53703
1309.55021	0.53381
1307.62156	0.53089
1305.69292	0.52833
1303.76427	0.52622
1301.83563	0.52464
1299.90698	0.52360
1297.97834	0.52308
1296.04969	0.52301
1294.12104	0.52326
1292.19240	0.52372
1290.26375	0.52433
1288.33511	0.52508
1286.40646	0.52606
1284.47782	0.52748
1282.54917	0.52959
1280.62053	0.53270
1278.69188	0.53703
1276.76324	0.54266
1274.83459	0.54945
1272.90595	0.55692
1270.97730	0.56438
1269.04866	0.57104
1267.12001	0.57623
1265.19136	0.57959
1263.26272	0.58114
1261.33407	0.58121
1259.40543	0.58029
1257.47678	0.57889
1255.54814	0.57740
1253.61949	0.57612
1251.69085	0.57526
1249.76220	0.57494
1247.83356	0.57513
1245.90491	0.57569
1243.97627	0.57639
1242.04762	0.57697
1240.11897	0.57726
1238.19033	0.57717
1236.26168	0.57674
1234.33304	0.57601
1232.40439	0.57506
1230.47575	0.57395
1228.54710	0.57276
1226.61846	0.57148
1224.68981	0.57002
1222.76117	0.56817
1220.83252	0.56569
1218.90388	0.56243
1216.97523	0.55840
1215.04658	0.55375
1213.11794	0.54874
1211.18929	0.54361
1209.26065	0.53858
1207.33200	0.53391
1205.40336	0.52980
1203.47471	0.52638
1201.54607	0.52377
1199.61742	0.52215
1197.68878	0.52173
1195.76013	0.52279
1193.83149	0.52577
1191.90284	0.53122
1189.97419	0.53938
1188.04555	0.55005
1186.11690	0.56280
1184.18826	0.57727
1182.25961	0.59326
1180.33097	0.61071
1178.40232	0.62980
1176.47368	0.65073
1174.54503	0.67351
1172.61639	0.69789
1170.68774	0.72360
1168.75910	0.75046
1166.83045	0.77834
1164.90180	0.80706
1162.97316	0.83637
1161.04451	0.86584
1159.11587	0.89495
1157.18722	0.92333
1155.25858	0.95103
1153.32993	0.97854
1151.40129	1.00671
1149.47264	1.03634
1147.54400	1.06789
1145.61535	1.10132
1143.68671	1.13627
1141.75806	1.17251
1139.82942	1.21030
1137.90077	1.25033
1135.97212	1.29305
1134.04348	1.33808
1132.11483	1.38388
1130.18619	1.42802
1128.25754	1.46791
1126.32890	1.50174
1124.40025	1.52918
1122.47161	1.55121
1120.54296	1.56951
1118.61432	1.58582
1116.68567	1.60139
1114.75703	1.61680
1112.82838	1.63218
1110.89973	1.64750
1108.97109	1.66286
1107.04244	1.67846
1105.11380	1.69451
1103.18515	1.71103
1101.25651	1.72779
1099.32786	1.74432
1097.39922	1.76014
1095.47057	1.77494
1093.54193	1.78861
1091.61328	1.80096
1089.68464	1.81144
1087.75599	1.81920
1085.82734	1.82345
1083.89870	1.82371
1081.97005	1.82000
1080.04141	1.81279
1078.11276	1.80268
1076.18412	1.78981
1074.25547	1.77378
1072.32683	1.75416
1070.39818	1.73084
1068.46954	1.70403
1066.54089	1.67418
1064.61225	1.64201
1062.68360	1.60820
1060.75495	1.57329
1058.82631	1.53771
1056.89766	1.50194
1054.96902	1.46640
1053.04037	1.43133
1051.11173	1.39688
1049.18308	1.36309
1047.25444	1.32999
1045.32579	1.29779
1043.39715	1.26689
1041.46850	1.23777
1039.53986	1.21086
1037.61121	1.18649
1035.68256	1.16447
1033.75392	1.14389
1031.82527	1.12335
1029.89663	1.10168
1027.96798	1.07834
1026.03934	1.05372
1024.11069	1.02900
1022.18205	1.00561
1020.25340	0.98448
1018.32476	0.96561
1016.39611	0.94840
1014.46747	0.93209
1012.53882	0.91633
1010.61018	0.90123
1008.68153	0.88724
1006.75288	0.87486
1004.82424	0.86458
1002.89559	0.85675
1000.96695	0.85151
999.03830	0.84872
997.10966	0.84791
995.18101	0.84814
993.25237	0.84823
991.32372	0.84730
989.39508	0.84496
987.46643	0.84094
985.53779	0.83477
983.60914	0.82570
981.68049	0.81271
979.75185	0.79483
977.82320	0.77184
975.89456	0.74479
973.96591	0.71559
972.03727	0.68612
970.10862	0.65762
968.17998	0.63068
966.25133	0.60547
964.32269	0.58191
962.39404	0.55992
960.46540	0.53966
958.53675	0.52152
956.60810	0.50585
954.67946	0.49267
952.75081	0.48185
950.82217	0.47313
948.89352	0.46601
946.96488	0.45972
945.03623	0.45353
943.10759	0.44714
941.17894	0.44069
939.25030	0.43458
937.32165	0.42924
935.39301	0.42501
933.46436	0.42188
931.53571	0.41927
929.60707	0.41616
927.67842	0.41160
925.74978	0.40506
923.82113	0.39661
921.89249	0.38704
919.96384	0.37783
918.03520	0.37067
916.10655	0.36677
914.17791	0.36656
912.24926	0.36979
910.32062	0.37560
908.39197	0.38257
906.46333	0.38913
904.53468	0.39443
902.60603	0.39863
900.67739	0.40252
898.74874	0.40696
896.82010	0.41241
894.89145	0.41864
892.96281	0.42486
891.03416	0.43031
889.10552	0.43508
887.17687	0.44011
885.24823	0.44631
883.31958	0.45378
881.39094	0.46157
879.46229	0.46822
877.53364	0.47267
875.60500	0.47484
873.67635	0.47573
871.74771	0.47672
869.81906	0.47875
867.89042	0.48178
865.96177	0.48490
864.03313	0.48682
862.10448	0.48674
860.17584	0.48464
858.24719	0.48115
856.31855	0.47706
854.38990	0.47286
852.46125	0.46864
850.53261	0.46424
848.60396	0.45963
846.67532	0.45486
844.74667	0.45006
842.81803	0.44557
840.88938	0.44161
838.96074	0.43808
837.03209	0.43461
835.10345	0.43100
833.17480	0.42738
831.24616	0.42388
829.31751	0.42037
827.38886	0.41666
825.46022	0.41281
823.53157	0.40926
821.60293	0.40674
819.67428	0.40599
817.74564	0.40757
815.81699	0.41148
813.88835	0.41679
811.95970	0.42200
810.03106	0.42600
808.10241	0.42850
806.17377	0.42972
804.24512	0.42998
802.31647	0.42963
800.38783	0.42895
798.45918	0.42795
796.53054	0.42681
794.60189	0.42615
792.67325	0.42694
790.74460	0.43013
788.81596	0.43632
786.88731	0.44526
784.95867	0.45547
783.03002	0.46453
781.10138	0.47004
779.17273	0.47050
777.24409	0.46579
775.31544	0.45716
773.38679	0.44676
771.45815	0.43690
769.52950	0.42941
767.60086	0.42514
765.67221	0.42400
763.74357	0.42539
761.81492	0.42830
759.88628	0.43148
757.95763	0.43408
756.02899	0.43644
754.10034	0.43964
752.17170	0.44450
750.24305	0.45110
748.31440	0.45890
746.38576	0.46655
744.45711	0.47223
742.52847	0.47474
740.59982	0.47409
738.67118	0.47121
736.74253	0.46734
734.81389	0.46378
732.88524	0.46162
730.95660	0.46128
729.02795	0.46242
727.09931	0.46437
725.17066	0.46654
723.24201	0.46852
721.31337	0.47012
719.38472	0.47145
717.45608	0.47281
715.52743	0.47460
713.59879	0.47711
711.67014	0.48036
709.74150	0.48394
707.81285	0.48699
705.88421	0.48854
703.95556	0.48809
702.02692	0.48603
700.09827	0.48362
698.16962	0.48251
696.24098	0.48398
694.31233	0.48835
692.38369	0.49475
690.45504	0.50155
688.52640	0.50696
686.59775	0.50969
684.66911	0.50936
682.74046	0.50668
680.81182	0.50362
678.88317	0.50274
676.95453	0.50604
675.02588	0.51382
673.09723	0.52447
671.16859	0.53504
669.23994	0.54241
667.31130	0.54473
665.38265	0.54253
663.45401	0.53837
661.52536	0.53496
659.59672	0.53388
657.66807	0.53520
655.73943	0.53791
653.81078	0.54069
651.88214	0.54267
649.95349	0.54391
648.02485	0.54514
646.09620	0.54707
644.16755	0.55016
642.23891	0.55461
640.31026	0.56050
638.38162	0.56767
636.45297	0.57545
634.52433	0.58212
632.59568	0.58500
630.66704	0.58117
628.73839	0.56837
626.80975	0.54570
624.88110	0.51466
622.95246	0.47976
621.02381	0.44679
619.09516	0.41927
617.16652	0.39666
615.23787	0.37598
613.30923	0.35493
611.38058	0.33446
609.45194	0.32032
607.52329	0.32213
605.59465	0.34812
603.66600	0.39874
601.73736	0.46499
599.80871	0.53279
597.88007	0.58938
595.95142	0.62774
594.02277	0.64786
592.09413	0.65516
590.16548	0.65669
588.23684	0.65743
586.30819	0.65908
584.37955	0.66132
582.45090	0.66363
580.52226	0.66607
578.59361	0.66913
576.66497	0.67335
574.73632	0.67893
572.80768	0.68552
570.87903	0.69232
568.95038	0.69871
567.02174	0.70502
565.09309	0.71282
563.16445	0.72433
561.23580	0.74098
559.30716	0.76192
557.37851	0.78386
555.44987	0.80252
553.52122	0.81482
551.59258	0.82031
549.66393	0.82133
547.73529	0.82161
545.80664	0.82414
543.87800	0.82970
541.94935	0.83674
540.02070	0.84262
538.09206	0.84511
536.16341	0.84333
534.23477	0.83789
532.30612	0.83026
530.37748	0.82177
528.44883	0.81288
526.52019	0.80296
524.59154	0.79053
522.66290	0.77414
520.73425	0.75321
518.80561	0.72865
516.87696	0.70261
514.94831	0.67773
513.01967	0.65612
511.09102	0.63845
509.16238	0.62381
507.23373	0.61018
505.30509	0.59547
503.37644	0.57862
501.44780	0.56010
499.51915	0.54174
497.59051	0.52581
495.66186	0.51397
493.73322	0.50657
491.80457	0.50256
489.87592	0.49999
487.94728	0.49694
486.01863	0.49223
484.08999	0.48579
482.16134	0.47831
480.23270	0.47071
478.30405	0.46367
476.37541	0.45745
474.44676	0.45195
472.51812	0.44704
470.58947	0.44286
468.66083	0.43984
466.73218	0.43835
464.80353	0.43819
462.87489	0.43844
460.94624	0.43769
459.01760	0.43475
457.08895	0.42923
455.16031	0.42185
453.23166	0.41411
451.30302	0.40745
449.37437	0.40247
447.44573	0.39869
445.51708	0.39508
443.58844	0.39074
441.65979	0.38532
439.73114	0.37918
437.80250	0.37306
435.87385	0.36768
433.94521	0.36340
432.01656	0.36019
430.08792	0.35782
428.15927	0.35582
426.23063	0.35349
424.30198	0.34998
422.37334	0.34466
420.44469	0.33726
418.51605	0.32800
416.58740	0.31764
414.65876	0.30737
412.73011	0.29841
410.80146	0.29167
408.87282	0.28752
406.94417	0.28561
405.01553	0.28485
403.08688	0.28364
401.15824	0.28048
399.22959	0.27461
397.30095	0.26622
395.37230	0.25634
393.44366	0.24626
391.51501	0.23704
389.58637	0.22910
387.65772	0.22230
385.72907	0.21611
383.80043	0.20989
381.87178	0.20301
379.94314	0.19502
378.01449	0.18589
376.08585	0.17631
374.15720	0.16756
372.22856	0.16096
370.29991	0.15705
368.37127	0.15498
366.44262	0.15272
364.51398	0.14818
362.58533	0.14052
360.65668	0.13102
358.72804	0.12252
356.79939	0.11795
354.87075	0.11857
352.94210	0.12330
351.01346	0.12931
349.08481	0.13355
347.15617	0.13417
345.22752	0.13108
343.29888	0.12554
341.37023	0.11914
339.44159	0.11298
337.51294	0.10765
335.58429	0.10366
333.65565	0.10152
331.72700	0.10142
329.79836	0.10286
327.86971	0.10470
325.94107	0.10536
324.01242	0.10331
322.08378	0.09848
320.15513	0.09235
318.22649	0.08722
316.29784	0.08494
314.36920	0.08592
312.44055	0.08906
310.51190	0.09232
308.58326	0.09379
306.65461	0.09268
304.72597	0.08976
302.79732	0.08698
300.86868	0.08652
298.94003	0.08988
297.01139	0.09723
295.08274	0.10735
293.15410	0.11802
291.22545	0.12679
289.29681	0.13158
287.36816	0.13108
285.43952	0.12509
283.51087	0.11492
281.58222	0.10320
279.65358	0.09332
277.72493	0.08866
275.79629	0.09161
273.86764	0.10239
271.93900	0.11851
270.01035	0.13559
268.08171	0.14920
266.15306	0.15683
264.22442	0.15888
262.29577	0.15840
260.36713	0.15932
258.43848	0.16411
256.50983	0.17230
254.58119	0.18063
252.65254	0.18461
250.72390	0.18079
248.79525	0.16882
246.86661	0.15207
244.93796	0.13645
243.00932	0.12796
241.08067	0.13048
239.15203	0.14459
237.22338	0.16742
235.29474	0.19361
233.36609	0.21759
231.43744	0.23596
229.50880	0.24840
227.58015	0.25660
225.65151	0.26268
223.72286	0.26810
221.79422	0.27308
219.86557	0.27657
217.93693	0.27721
216.00828	0.27460
214.07964	0.26973
212.15099	0.26421
210.22235	0.25951
208.29370	0.25698
206.36505	0.25795
204.43641	0.26326
202.50776	0.27235
200.57912	0.28286
198.65047	0.29141
196.72183	0.29521
194.79318	0.29370
192.86454	0.28961
190.93589	0.28867
189.00725	0.29717
187.07860	0.31862
185.14996	0.35176
183.22131	0.39133
181.29267	0.43056
179.36402	0.46346
177.43537	0.48641
175.50673	0.49870
173.57808	0.50165
171.64944	0.49694
169.72079	0.48605
167.79215	0.47133
165.86350	0.45730
163.93486	0.45045
162.00621	0.46802
160.07757	0.50223
158.14892	0.54430
156.22028	0.58479
154.29163	0.58479
152.36298	0.58479
150.43434	0.58479
148.50569	0.58479
