4497.60101	0.04692
4495.67236	0.04692
4493.74372	0.04692
4491.81507	0.04692
4489.88643	0.04692
4487.95778	0.05094
4486.02914	0.05654
4484.10049	0.06270
4482.17185	0.06833
4480.24320	0.07256
4478.31455	0.07549
4476.38591	0.07795
4474.45726	0.08060
4472.52862	0.08323
4470.59997	0.08490
4468.67133	0.08461
4466.74268	0.08207
4464.81404	0.07813
4462.88539	0.07421
4460.95675	0.07136
4459.02810	0.06988
4457.09946	0.06937
4455.17081	0.06898
4453.24216	0.06780
4451.31352	0.06561
4449.38487	0.06309
4447.45623	0.06127
4445.52758	0.06060
4443.59894	0.06076
4441.67029	0.06127
4439.74165	0.06175
4437.81300	0.06207
4435.88436	0.06241
4433.95571	0.06292
4432.02707	0.06326
4430.09842	0.06263
4428.16978	0.06041
4426.24113	0.05685
4424.31248	0.05326
4422.38384	0.05137
4420.45519	0.05241
4418.52655	0.05622
4416.59790	0.06126
4414.66926	0.06539
4412.74061	0.06697
4410.81197	0.06570
4408.88332	0.06263
4406.95468	0.05937
4405.02603	0.05708
4403.09739	0.05634
4401.16874	0.05718
4399.24009	0.05926
4397.31145	0.06241
4395.38280	0.06670
4393.45416	0.07186
4391.52551	0.07690
4389.59687	0.08061
4387.66822	0.08210
4385.73958	0.08082
4383.81093	0.07685
4381.88229	0.07143
4379.95364	0.06627
4378.02500	0.06245
4376.09635	0.06031
4374.16770	0.05980
4372.23906	0.06046
4370.31041	0.06144
4368.38177	0.06245
4366.45312	0.06425
4364.52448	0.06772
4362.59583	0.07255
4360.66719	0.07728
4358.73854	0.08018
4356.80990	0.07993
4354.88125	0.07640
4352.95261	0.07117
4351.02396	0.06693
4349.09531	0.06553
4347.16667	0.06680
4345.23802	0.06905
4343.30938	0.07032
4341.38073	0.06914
4339.45209	0.06522
4337.52344	0.05971
4335.59480	0.05441
4333.66615	0.05074
4331.73751	0.04949
4329.80886	0.05090
4327.88022	0.05446
4325.95157	0.05902
4324.02292	0.06352
4322.09428	0.06727
4320.16563	0.06956
4318.23699	0.06994
4316.30834	0.06860
4314.37970	0.06596
4312.45105	0.06227
4310.52241	0.05803
4308.59376	0.05438
4306.66512	0.05256
4304.73647	0.05329
4302.80783	0.05643
4300.87918	0.06108
4298.95054	0.06569
4297.02189	0.06883
4295.09324	0.06979
4293.16460	0.06883
4291.23595	0.06717
4289.30731	0.06633
4287.37866	0.06688
4285.45002	0.06811
4283.52137	0.06902
4281.59273	0.06915
4279.66408	0.06842
4277.73544	0.06705
4275.80679	0.06577
4273.87815	0.06536
4271.94950	0.06574
4270.02085	0.06634
4268.09221	0.06710
4266.16356	0.06839
4264.23492	0.07017
4262.30627	0.07189
4260.37763	0.07305
4258.44898	0.07318
4256.52034	0.07178
4254.59169	0.06897
4252.66305	0.06579
4250.73440	0.06349
4248.80576	0.06274
4246.87711	0.06350
4244.94846	0.06527
4243.01982	0.06690
4241.09117	0.06696
4239.16253	0.06469
4237.23388	0.06051
4235.30524	0.05570
4233.37659	0.05148
4231.44795	0.04854
4229.51930	0.04709
4227.59066	0.04691
4225.66201	0.04741
4223.73337	0.04800
4221.80472	0.04857
4219.87607	0.04935
4217.94743	0.05023
4216.01878	0.05063
4214.09014	0.05027
4212.16149	0.04952
4210.23285	0.04896
4208.30420	0.04911
4206.37556	0.05050
4204.44691	0.05314
4202.51827	0.05610
4200.58962	0.05800
4198.66098	0.05805
4196.73233	0.05650
4194.80368	0.05440
4192.87504	0.05304
4190.94639	0.05332
4189.01775	0.05531
4187.08910	0.05831
4185.16046	0.06143
4183.23181	0.06405
4181.30317	0.06605
4179.37452	0.06758
4177.44588	0.06884
4175.51723	0.06999
4173.58859	0.07122
4171.65994	0.07251
4169.73130	0.07343
4167.80265	0.07344
4165.87400	0.07226
4163.94536	0.06992
4162.01671	0.06673
4160.08807	0.06320
4158.15942	0.05992
4156.23078	0.05705
4154.30213	0.05423
4152.37349	0.05120
4150.44484	0.04845
4148.51620	0.04694
4146.58755	0.04723
4144.65891	0.04905
4142.73026	0.05158
4140.80161	0.05380
4138.87297	0.05474
4136.94432	0.05399
4135.01568	0.05219
4133.08703	0.05072
4131.15839	0.05056
4129.22974	0.05158
4127.30110	0.05278
4125.37245	0.05303
4123.44381	0.05147
4121.51516	0.04775
4119.58652	0.04245
4117.65787	0.03719
4115.72922	0.03383
4113.80058	0.03340
4111.87193	0.03596
4109.94329	0.04082
4108.01464	0.04668
4106.08600	0.05196
4104.15735	0.05540
4102.22871	0.05657
4100.30006	0.05584
4098.37142	0.05423
4096.44277	0.05317
4094.51413	0.05390
4092.58548	0.05664
4090.65683	0.06053
4088.72819	0.06416
4086.79954	0.06604
4084.87090	0.06513
4082.94225	0.06156
4081.01361	0.05685
4079.08496	0.05291
4077.15632	0.05098
4075.22767	0.05123
4073.29903	0.05304
4071.37038	0.05526
4069.44174	0.05647
4067.51309	0.05569
4065.58444	0.05297
4063.65580	0.04908
4061.72715	0.04480
4059.79851	0.04066
4057.86986	0.03716
4055.94122	0.03473
4054.01257	0.03358
4052.08393	0.03400
4050.15528	0.03651
4048.22664	0.04131
4046.29799	0.04759
4044.36935	0.05378
4042.44070	0.05842
4040.51206	0.06059
4038.58341	0.06015
4036.65476	0.05802
4034.72612	0.05585
4032.79747	0.05504
4030.86883	0.05601
4028.94018	0.05824
4027.01154	0.06076
4025.08289	0.06250
4023.15425	0.06248
4021.22560	0.06021
4019.29696	0.05605
4017.36831	0.05109
4015.43967	0.04679
4013.51102	0.04439
4011.58237	0.04422
4009.65373	0.04607
4007.72508	0.04897
4005.79644	0.05165
4003.86779	0.05316
4001.93915	0.05327
4000.01050	0.05236
3998.08186	0.05109
3996.15321	0.05002
3994.22457	0.04950
3992.29592	0.04956
3990.36728	0.04995
3988.43863	0.05030
3986.50998	0.05030
3984.58134	0.04984
3982.65269	0.04903
3980.72405	0.04821
3978.79540	0.04780
3976.86676	0.04825
3974.93811	0.04984
3973.00947	0.05264
3971.08082	0.05643
3969.15218	0.06065
3967.22353	0.06444
3965.29489	0.06688
3963.36624	0.06725
3961.43759	0.06531
3959.50895	0.06138
3957.58030	0.05629
3955.65166	0.05110
3953.72301	0.04674
3951.79437	0.04373
3949.86572	0.04214
3947.93708	0.04178
3946.00843	0.04243
3944.07979	0.04391
3942.15114	0.04605
3940.22250	0.04856
3938.29385	0.05101
3936.36521	0.05285
3934.43656	0.05361
3932.50791	0.05307
3930.57927	0.05139
3928.65062	0.04910
3926.72198	0.04689
3924.79333	0.04540
3922.86469	0.04508
3920.93604	0.04601
3919.00740	0.04783
3917.07875	0.04994
3915.15011	0.05172
3913.22146	0.05286
3911.29282	0.05346
3909.36417	0.05398
3907.43552	0.05495
3905.50688	0.05671
3903.57823	0.05915
3901.64959	0.06176
3899.72094	0.06392
3897.79230	0.06527
3895.86365	0.06585
3893.93501	0.06609
3892.00636	0.06649
3890.07772	0.06735
3888.14907	0.06852
3886.22043	0.06949
3884.29178	0.06975
3882.36313	0.06906
3880.43449	0.06767
3878.50584	0.06617
3876.57720	0.06513
3874.64855	0.06481
3872.71991	0.06502
3870.79126	0.06516
3868.86262	0.06465
3866.93397	0.06348
3865.00533	0.06234
3863.07668	0.06230
3861.14804	0.06418
3859.21939	0.06799
3857.29074	0.07270
3855.36210	0.07652
3853.43345	0.07773
3851.50481	0.07561
3849.57616	0.07091
3847.64752	0.06542
3845.71887	0.06105
3843.79023	0.05907
3841.86158	0.05974
3839.93294	0.06234
3838.00429	0.06558
3836.07565	0.06828
3834.14700	0.06972
3832.21835	0.06969
3830.28971	0.06827
3828.36106	0.06569
3826.43242	0.06229
3824.50377	0.05850
3822.57513	0.05478
3820.64648	0.05157
3818.71784	0.04926
3816.78919	0.04805
3814.86055	0.04788
3812.93190	0.04851
3811.00326	0.04963
3809.07461	0.05104
3807.14597	0.05270
3805.21732	0.05468
3803.28867	0.05694
3801.36003	0.05913
3799.43138	0.06064
3797.50274	0.06093
3795.57409	0.05984
3793.64545	0.05773
3791.71680	0.05551
3789.78816	0.05426
3787.85951	0.05468
3785.93087	0.05663
3784.00222	0.05920
3782.07358	0.06129
3780.14493	0.06219
3778.21628	0.06190
3776.28764	0.06111
3774.35899	0.06065
3772.43035	0.06091
3770.50170	0.06154
3768.57306	0.06169
3766.64441	0.06065
3764.71577	0.05835
3762.78712	0.05550
3760.85848	0.05327
3758.92983	0.05268
3757.00119	0.05421
3755.07254	0.05771
3753.14389	0.06253
3751.21525	0.06761
3749.28660	0.07181
3747.35796	0.07416
3745.42931	0.07417
3743.50067	0.07204
3741.57202	0.06873
3739.64338	0.06572
3737.71473	0.06426
3735.78609	0.06477
3733.85744	0.06665
3731.92880	0.06871
3730.00015	0.06974
3728.07150	0.06909
3726.14286	0.06695
3724.21421	0.06421
3722.28557	0.06193
3720.35692	0.06092
3718.42828	0.06155
3716.49963	0.06374
3714.57099	0.06705
3712.64234	0.07079
3710.71370	0.07421
3708.78505	0.07678
3706.85641	0.07839
3704.92776	0.07924
3702.99911	0.07973
3701.07047	0.08035
3699.14182	0.08150
3697.21318	0.08340
3695.28453	0.08599
3693.35589	0.08910
3691.42724	0.09249
3689.49860	0.09583
3687.56995	0.09870
3685.64131	0.10091
3683.71266	0.10258
3681.78402	0.10409
3679.85537	0.10586
3677.92673	0.10811
3675.99808	0.11069
3674.06943	0.11325
3672.14079	0.11547
3670.21214	0.11737
3668.28350	0.11935
3666.35485	0.12205
3664.42621	0.12620
3662.49756	0.13230
3660.56892	0.14046
3658.64027	0.15039
3656.71163	0.16136
3654.78298	0.17224
3652.85434	0.18163
3650.92569	0.18833
3648.99704	0.19171
3647.06840	0.19211
3645.13975	0.19075
3643.21111	0.18946
3641.28246	0.19010
3639.35382	0.19390
3637.42517	0.20105
3635.49653	0.21066
3633.56788	0.22120
3631.63924	0.23113
3629.71059	0.23950
3627.78195	0.24632
3625.85330	0.25238
3623.92465	0.25860
3621.99601	0.26539
3620.06736	0.27250
3618.13872	0.27924
3616.21007	0.28495
3614.28143	0.28928
3612.35278	0.29229
3610.42414	0.29427
3608.49549	0.29563
3606.56685	0.29680
3604.63820	0.29836
3602.70956	0.30095
3600.78091	0.30509
3598.85226	0.31084
3596.92362	0.31759
3594.99497	0.32428
3593.06633	0.32991
3591.13768	0.33413
3589.20904	0.33740
3587.28039	0.34070
3585.35175	0.34512
3583.42310	0.35131
3581.49446	0.35912
3579.56581	0.36761
3577.63717	0.37564
3575.70852	0.38245
3573.77988	0.38801
3571.85123	0.39291
3569.92258	0.39803
3567.99394	0.40406
3566.06529	0.41120
3564.13665	0.41919
3562.20800	0.42754
3560.27936	0.43579
3558.35071	0.44360
3556.42207	0.45067
3554.49342	0.45670
3552.56478	0.46142
3550.63613	0.46482
3548.70749	0.46721
3546.77884	0.46916
3544.85019	0.47128
3542.92155	0.47414
3540.99290	0.47808
3539.06426	0.48322
3537.13561	0.48953
3535.20697	0.49688
3533.27832	0.50507
3531.34968	0.51373
3529.42103	0.52243
3527.49239	0.53069
3525.56374	0.53808
3523.63510	0.54434
3521.70645	0.54939
3519.77780	0.55343
3517.84916	0.55692
3515.92051	0.56051
3513.99187	0.56485
3512.06322	0.57038
3510.13458	0.57720
3508.20593	0.58495
3506.27729	0.59298
3504.34864	0.60048
3502.42000	0.60679
3500.49135	0.61162
3498.56271	0.61520
3496.63406	0.61823
3494.70541	0.62155
3492.77677	0.62577
3490.84812	0.63108
3488.91948	0.63716
3486.99083	0.64326
3485.06219	0.64862
3483.13354	0.65285
3481.20490	0.65616
3479.27625	0.65913
3477.34761	0.66244
3475.41896	0.66644
3473.49032	0.67106
3471.56167	0.67580
3469.63302	0.68000
3467.70438	0.68332
3465.77573	0.68601
3463.84709	0.68887
3461.91844	0.69281
3459.98980	0.69840
3458.06115	0.70557
3456.13251	0.71356
3454.20386	0.72108
3452.27522	0.72681
3450.34657	0.73009
3448.41793	0.73120
3446.48928	0.73121
3444.56064	0.73153
3442.63199	0.73339
3440.70334	0.73736
3438.77470	0.74313
3436.84605	0.74974
3434.91741	0.75615
3432.98876	0.76165
3431.06012	0.76594
3429.13147	0.76903
3427.20283	0.77105
3425.27418	0.77221
3423.34554	0.77274
3421.41689	0.77296
3419.48825	0.77332
3417.55960	0.77422
3415.63095	0.77590
3413.70231	0.77823
3411.77366	0.78093
3409.84502	0.78364
3407.91637	0.78616
3405.98773	0.78842
3404.05908	0.79052
3402.13044	0.79267
3400.20179	0.79511
3398.27315	0.79798
3396.34450	0.80116
3394.41586	0.80428
3392.48721	0.80677
3390.55856	0.80805
3388.62992	0.80791
3386.70127	0.80672
3384.77263	0.80525
3382.84398	0.80435
3380.91534	0.80455
3378.98669	0.80592
3377.05805	0.80816
3375.12940	0.81080
3373.20076	0.81351
3371.27211	0.81605
3369.34347	0.81822
3367.41482	0.81971
3365.48617	0.82027
3363.55753	0.81988
3361.62888	0.81885
3359.70024	0.81768
3357.77159	0.81683
3355.84295	0.81645
3353.91430	0.81629
3351.98566	0.81588
3350.05701	0.81491
3348.12837	0.81343
3346.19972	0.81184
3344.27108	0.81060
3342.34243	0.80993
3340.41378	0.80972
3338.48514	0.80967
3336.55649	0.80953
3334.62785	0.80931
3332.69920	0.80931
3330.77056	0.80997
3328.84191	0.81152
3326.91327	0.81379
3324.98462	0.81618
3323.05598	0.81795
3321.12733	0.81847
3319.19869	0.81753
3317.27004	0.81541
3315.34140	0.81291
3313.41275	0.81098
3311.48410	0.81043
3309.55546	0.81156
3307.62681	0.81405
3305.69817	0.81705
3303.76952	0.81948
3301.84088	0.82046
3299.91223	0.81964
3297.98359	0.81736
3296.05494	0.81450
3294.12630	0.81201
3292.19765	0.81047
3290.26901	0.80992
3288.34036	0.80986
3286.41171	0.80957
3284.48307	0.80852
3282.55442	0.80671
3280.62578	0.80468
3278.69713	0.80315
3276.76849	0.80260
3274.83984	0.80295
3272.91120	0.80354
3270.98255	0.80339
3269.05391	0.80166
3267.12526	0.79805
3265.19662	0.79298
3263.26797	0.78743
3261.33932	0.78245
3259.41068	0.77876
3257.48203	0.77654
3255.55339	0.77534
3253.62474	0.77438
3251.69610	0.77284
3249.76745	0.77021
3247.83881	0.76648
3245.91016	0.76201
3243.98152	0.75739
3242.05287	0.75312
3240.12423	0.74943
3238.19558	0.74610
3236.26693	0.74274
3234.33829	0.73896
3232.40964	0.73468
3230.48100	0.73011
3228.55235	0.72571
3226.62371	0.72190
3224.69506	0.71880
3222.76642	0.71609
3220.83777	0.71329
3218.90913	0.71005
3216.98048	0.70644
3215.05184	0.70292
3213.12319	0.70007
3211.19455	0.69828
3209.26590	0.69741
3207.33725	0.69682
3205.40861	0.69573
3203.47996	0.69362
3201.55132	0.69051
3199.62267	0.68684
3197.69403	0.68314
3195.76538	0.67974
3193.83674	0.67660
3191.90809	0.67342
3189.97945	0.66977
3188.05080	0.66541
3186.12216	0.66030
3184.19351	0.65469
3182.26486	0.64893
3180.33622	0.64348
3178.40757	0.63876
3176.47893	0.63503
3174.55028	0.63232
3172.62164	0.63041
3170.69299	0.62893
3168.76435	0.62759
3166.83570	0.62620
3164.90706	0.62471
3162.97841	0.62314
3161.04977	0.62152
3159.12112	0.61974
3157.19247	0.61761
3155.26383	0.61496
3153.33518	0.61163
3151.40654	0.60765
3149.47789	0.60314
3147.54925	0.59836
3145.62060	0.59363
3143.69196	0.58919
3141.76331	0.58515
3139.83467	0.58149
3137.90602	0.57801
3135.97738	0.57448
3134.04873	0.57077
3132.12008	0.56700
3130.19144	0.56342
3128.26279	0.56039
3126.33415	0.55824
3124.40550	0.55713
3122.47686	0.55690
3120.54821	0.55703
3118.61957	0.55688
3116.69092	0.55596
3114.76228	0.55405
3112.83363	0.55131
3110.90499	0.54812
3108.97634	0.54489
3107.04769	0.54184
3105.11905	0.53896
3103.19040	0.53610
3101.26176	0.53318
3099.33311	0.53030
3097.40447	0.52767
3095.47582	0.52544
3093.54718	0.52357
3091.61853	0.52186
3089.68989	0.52009
3087.76124	0.51815
3085.83260	0.51610
3083.90395	0.51422
3081.97531	0.51286
3080.04666	0.51226
3078.11801	0.51247
3076.18937	0.51328
3074.26072	0.51434
3072.33208	0.51520
3070.40343	0.51546
3068.47479	0.51479
3066.54614	0.51304
3064.61750	0.51024
3062.68885	0.50659
3060.76021	0.50245
3058.83156	0.49814
3056.90292	0.49398
3054.97427	0.49014
3053.04562	0.48673
3051.11698	0.48371
3049.18833	0.48098
3047.25969	0.47852
3045.33104	0.47635
3043.40240	0.47450
3041.47375	0.47293
3039.54511	0.47155
3037.61646	0.47022
3035.68782	0.46882
3033.75917	0.46730
3031.83053	0.46573
3029.90188	0.46423
3027.97323	0.46287
3026.04459	0.46158
3024.11594	0.46024
3022.18730	0.45872
3020.25865	0.45702
3018.33001	0.45524
3016.40136	0.45358
3014.47272	0.45216
3012.54407	0.45091
3010.61543	0.44955
3008.68678	0.44783
3006.75814	0.44574
3004.82949	0.44358
3002.90084	0.44190
3000.97220	0.44136
2999.04355	0.44243
2997.11491	0.44514
2995.18626	0.44895
2993.25762	0.45302
2991.32897	0.45650
2989.40033	0.45870
2987.47168	0.45943
2985.54304	0.45925
2983.61439	0.45917
2981.68575	0.46013
2979.75710	0.46275
2977.82845	0.46711
2975.89981	0.47279
2973.97116	0.47902
2972.04252	0.48529
2970.11387	0.49160
2968.18523	0.49815
2966.25658	0.50489
2964.32794	0.51137
2962.39929	0.51687
2960.47065	0.52053
2958.54200	0.52171
2956.61336	0.52043
2954.68471	0.51761
2952.75607	0.51468
2950.82742	0.51304
2948.89877	0.51374
2946.97013	0.51728
2945.04148	0.52344
2943.11284	0.53133
2941.18419	0.54003
2939.25555	0.54901
2937.32690	0.55829
2935.39826	0.56817
2933.46961	0.57911
2931.54097	0.59160
2929.61232	0.60574
2927.68368	0.62083
2925.75503	0.63538
2923.82638	0.64724
2921.89774	0.65384
2919.96909	0.65282
2918.04045	0.64297
2916.11180	0.62499
2914.18316	0.60135
2912.25451	0.57544
2910.32587	0.55058
2908.39722	0.52923
2906.46858	0.51260
2904.53993	0.50064
2902.61129	0.49249
2900.68264	0.48694
2898.75399	0.48278
2896.82535	0.47901
2894.89670	0.47492
2892.96806	0.47024
2891.03941	0.46513
2889.11077	0.45995
2887.18212	0.45509
2885.25348	0.45090
2883.32483	0.44766
2881.39619	0.44556
2879.46754	0.44449
2877.53890	0.44407
2875.61025	0.44372
2873.68160	0.44297
2871.75296	0.44167
2869.82431	0.44015
2867.89567	0.43932
2865.96702	0.44025
2864.03838	0.44394
2862.10973	0.45100
2860.18109	0.46141
2858.25244	0.47423
2856.32380	0.48735
2854.39515	0.49788
2852.46651	0.50282
2850.53786	0.50006
2848.60922	0.48916
2846.68057	0.47176
2844.75192	0.45099
2842.82328	0.43022
2840.89463	0.41209
2838.96599	0.39800
2837.03734	0.38821
2835.10870	0.38212
2833.18005	0.37872
2831.25141	0.37696
2829.32276	0.37581
2827.39412	0.37430
2825.46547	0.37182
2823.53683	0.36839
2821.60818	0.36455
2819.67953	0.36096
2817.75089	0.35813
2815.82224	0.35625
2813.89360	0.35501
2811.96495	0.35378
2810.03631	0.35203
2808.10766	0.34969
2806.17902	0.34706
2804.25037	0.34458
2802.32173	0.34278
2800.39308	0.34195
2798.46444	0.34197
2796.53579	0.34242
2794.60714	0.34289
2792.67850	0.34307
2790.74985	0.34269
2788.82121	0.34151
2786.89256	0.33942
2784.96392	0.33656
2783.03527	0.33340
2781.10663	0.33063
2779.17798	0.32891
2777.24934	0.32847
2775.32069	0.32888
2773.39205	0.32929
2771.46340	0.32886
2769.53475	0.32726
2767.60611	0.32489
2765.67746	0.32256
2763.74882	0.32104
2761.82017	0.32063
2759.89153	0.32106
2757.96288	0.32176
2756.03424	0.32214
2754.10559	0.32188
2752.17695	0.32111
2750.24830	0.32032
2748.31966	0.32003
2746.39101	0.32041
2744.46236	0.32126
2742.53372	0.32212
2740.60507	0.32249
2738.67643	0.32197
2736.74778	0.32048
2734.81914	0.31830
2732.89049	0.31583
2730.96185	0.31336
2729.03320	0.31114
2727.10456	0.30943
2725.17591	0.30837
2723.24727	0.30798
2721.31862	0.30812
2719.38998	0.30850
2717.46133	0.30869
2715.53268	0.30828
2713.60404	0.30712
2711.67539	0.30548
2709.74675	0.30388
2707.81810	0.30283
2705.88946	0.30263
2703.96081	0.30324
2702.03217	0.30425
2700.10352	0.30501
2698.17488	0.30496
2696.24623	0.30402
2694.31759	0.30259
2692.38894	0.30120
2690.46029	0.30037
2688.53165	0.30022
2686.60300	0.30043
2684.67436	0.30040
2682.74571	0.29963
2680.81707	0.29813
2678.88842	0.29644
2676.95978	0.29528
2675.03113	0.29506
2673.10249	0.29566
2671.17384	0.29648
2669.24520	0.29686
2667.31655	0.29644
2665.38790	0.29535
2663.45926	0.29409
2661.53061	0.29311
2659.60197	0.29250
2657.67332	0.29210
2655.74468	0.29161
2653.81603	0.29077
2651.88739	0.28948
2649.95874	0.28778
2648.03010	0.28569
2646.10145	0.28309
2644.17281	0.28000
2642.24416	0.27677
2640.31551	0.27388
2638.38687	0.27159
2636.45822	0.26999
2634.52958	0.26915
2632.60093	0.26908
2630.67229	0.26945
2628.74364	0.26976
2626.81500	0.26967
2624.88635	0.26893
2622.95771	0.26726
2621.02906	0.26464
2619.10042	0.26175
2617.17177	0.25974
2615.24312	0.25948
2613.31448	0.26118
2611.38583	0.26452
2609.45719	0.26866
2607.52854	0.27226
2605.59990	0.27412
2603.67125	0.27394
2601.74261	0.27210
2599.81396	0.26920
2597.88532	0.26593
2595.95667	0.26309
2594.02803	0.26106
2592.09938	0.25954
2590.17074	0.25802
2588.24209	0.25637
2586.31344	0.25459
2584.38480	0.25272
2582.45615	0.25115
2580.52751	0.25056
2578.59886	0.25117
2576.67022	0.25244
2574.74157	0.25352
2572.81293	0.25389
2570.88428	0.25363
2568.95564	0.25333
2567.02699	0.25366
2565.09835	0.25489
2563.16970	0.25665
2561.24105	0.25829
2559.31241	0.25942
2557.38376	0.26015
2555.45512	0.26109
2553.52647	0.26285
2551.59783	0.26517
2549.66918	0.26678
2547.74054	0.26640
2545.81189	0.26376
2543.88325	0.25976
2541.95460	0.25586
2540.02596	0.25355
2538.09731	0.25374
2536.16866	0.25616
2534.24002	0.25950
2532.31137	0.26232
2530.38273	0.26371
2528.45408	0.26324
2526.52544	0.26100
2524.59679	0.25766
2522.66815	0.25437
2520.73950	0.25227
2518.81086	0.25216
2516.88221	0.25425
2514.95357	0.25784
2513.02492	0.26135
2511.09627	0.26313
2509.16763	0.26243
2507.23898	0.25954
2505.31034	0.25562
2503.38169	0.25248
2501.45305	0.25174
2499.52440	0.25367
2497.59576	0.25721
2495.66711	0.26086
2493.73847	0.26340
2491.80982	0.26394
2489.88118	0.26241
2487.95253	0.25988
2486.02389	0.25755
2484.09524	0.25579
2482.16659	0.25458
2480.23795	0.25416
2478.30930	0.25472
2476.38066	0.25599
2474.45201	0.25779
2472.52337	0.26020
2470.59472	0.26273
2468.66608	0.26429
2466.73743	0.26424
2464.80879	0.26273
2462.88014	0.26008
2460.95150	0.25656
2459.02285	0.25278
2457.09420	0.24964
2455.16556	0.24759
2453.23691	0.24669
2451.30827	0.24699
2449.37962	0.24842
2447.45098	0.25049
2445.52233	0.25268
2443.59369	0.25485
2441.66504	0.25709
2439.73640	0.25930
2437.80775	0.26117
2435.87911	0.26236
2433.95046	0.26258
2432.02181	0.26160
2430.09317	0.25961
2428.16452	0.25740
2426.23588	0.25589
2424.30723	0.25558
2422.37859	0.25637
2420.44994	0.25776
2418.52130	0.25893
2416.59265	0.25912
2414.66401	0.25816
2412.73536	0.25677
2410.80672	0.25604
2408.87807	0.25672
2406.94942	0.25894
2405.02078	0.26201
2403.09213	0.26458
2401.16349	0.26523
2399.23484	0.26335
2397.30620	0.25945
2395.37755	0.25481
2393.44891	0.25083
2391.52026	0.24861
2389.59162	0.24856
2387.66297	0.25026
2385.73433	0.25273
2383.80568	0.25494
2381.87703	0.25613
2379.94839	0.25597
2378.01974	0.25462
2376.09110	0.25271
2374.16245	0.25115
2372.23381	0.25075
2370.30516	0.25182
2368.37652	0.25391
2366.44787	0.25616
2364.51923	0.25771
2362.59058	0.25810
2360.66194	0.25731
2358.73329	0.25582
2356.80465	0.25424
2354.87600	0.25294
2352.94735	0.25178
2351.01871	0.25046
2349.09006	0.24908
2347.16142	0.24804
2345.23277	0.24781
2343.30413	0.24870
2341.37548	0.25073
2339.44684	0.25336
2337.51819	0.25572
2335.58955	0.25706
2333.66090	0.25717
2331.73226	0.25644
2329.80361	0.25562
2327.87496	0.25546
2325.94632	0.25641
2324.01767	0.25840
2322.08903	0.26094
2320.16038	0.26324
2318.23174	0.26448
2316.30309	0.26418
2314.37445	0.26253
2312.44580	0.26024
2310.51716	0.25818
2308.58851	0.25695
2306.65987	0.25665
2304.73122	0.25679
2302.80257	0.25657
2300.87393	0.25530
2298.94528	0.25288
2297.01664	0.24976
2295.08799	0.24672
2293.15935	0.24451
2291.23070	0.24359
2289.30206	0.24408
2287.37341	0.24568
2285.44477	0.24770
2283.51612	0.24920
2281.58748	0.24941
2279.65883	0.24801
2277.73018	0.24516
2275.80154	0.24145
2273.87289	0.23774
2271.94425	0.23478
2270.01560	0.23286
2268.08696	0.23177
2266.15831	0.23114
2264.22967	0.23070
2262.30102	0.23033
2260.37238	0.22993
2258.44373	0.22917
2256.51509	0.22735
2254.58644	0.22372
2252.65779	0.21787
2250.72915	0.21013
2248.80050	0.20202
2246.87186	0.19600
2244.94321	0.19417
2243.01457	0.19660
2241.08592	0.20127
2239.15728	0.20540
2237.22863	0.20664
2235.29999	0.20402
2233.37134	0.19862
2231.44270	0.19293
2229.51405	0.18871
2227.58541	0.18563
2225.65676	0.18204
2223.72811	0.17672
2221.79947	0.16978
2219.87082	0.16262
2217.94218	0.15729
2216.01353	0.15542
2214.08489	0.15697
2212.15624	0.16008
2210.22760	0.16228
2208.29895	0.16165
2206.37031	0.15770
2204.44166	0.15171
2202.51302	0.14597
2200.58437	0.14248
2198.65572	0.14244
2196.72708	0.14648
2194.79843	0.15415
2192.86979	0.16261
2190.94114	0.16758
2189.01250	0.16671
2187.08385	0.16088
2185.15521	0.15281
2183.22656	0.14612
2181.29792	0.14478
2179.36927	0.15016
2177.44063	0.15881
2175.51198	0.16542
2173.58333	0.16693
2171.65469	0.16203
2169.72604	0.14943
2167.79740	0.12919
2165.86875	0.10340
2163.94011	0.07436
2162.01146	0.04474
2160.08282	0.01965
2158.15417	0.00460
2156.22553	0.00103
2154.29688	0.00713
2152.36824	0.02111
2150.43959	0.04078
2148.51094	0.06199
2146.58230	0.08064
2144.65365	0.09483
2142.72501	0.10426
2140.79636	0.10974
2138.86772	0.11437
2136.93907	0.12235
2135.01043	0.13533
2133.08178	0.15128
2131.15314	0.16670
2129.22449	0.17909
2127.29585	0.18779
2125.36720	0.19389
2123.43856	0.19934
2121.50991	0.20516
2119.58126	0.21023
2117.65262	0.21213
2115.72397	0.20949
2113.79533	0.20321
2111.86668	0.19588
2109.93804	0.19052
2108.00939	0.18939
2106.08075	0.19302
2104.15210	0.19972
2102.22346	0.20647
2100.29481	0.21079
2098.36617	0.21165
2096.43752	0.20936
2094.50887	0.20491
2092.58023	0.19940
2090.65158	0.19356
2088.72294	0.18767
2086.79429	0.18204
2084.86565	0.17725
2082.93700	0.17397
2081.00836	0.17276
2079.07971	0.17386
2077.15107	0.17707
2075.22242	0.18188
2073.29378	0.18771
2071.36513	0.19402
2069.43648	0.20018
2067.50784	0.20532
2065.57919	0.20832
2063.65055	0.20798
2061.72190	0.20330
2059.79326	0.19391
2057.86461	0.18049
2055.93597	0.16507
2054.00732	0.15078
2052.07868	0.14122
2050.15003	0.13929
2048.22139	0.14564
2046.29274	0.15735
2044.36409	0.16838
2042.43545	0.17206
2040.50680	0.16426
2038.57816	0.14501
2036.64951	0.11828
2034.72087	0.09005
2032.79222	0.06557
2030.86358	0.04748
2028.93493	0.03598
2027.00629	0.03076
2025.07764	0.03221
2023.14900	0.04069
2021.22035	0.05466
2019.29170	0.06990
2017.36306	0.08080
2015.43441	0.08301
2013.50577	0.07590
2011.57712	0.06339
2009.64848	0.05256
2007.71983	0.05044
2005.79119	0.06062
2003.86254	0.08206
2001.93390	0.10983
2000.00525	0.13867
1998.07661	0.16428
1996.14796	0.18382
1994.21932	0.19658
1992.29067	0.20350
1990.36202	0.20620
1988.43338	0.20623
1986.50473	0.20522
1984.57609	0.20521
1982.64744	0.20813
1980.71880	0.21510
1978.79015	0.22591
1976.86151	0.23842
1974.93286	0.24852
1973.00422	0.25137
1971.07557	0.24401
1969.14693	0.22707
1967.21828	0.20468
1965.28963	0.18302
1963.36099	0.16816
1961.43234	0.16368
1959.50370	0.16939
1957.57505	0.18221
1955.64641	0.19806
1953.71776	0.21346
1951.78912	0.22616
1949.86047	0.23532
1947.93183	0.24103
1946.00318	0.24369
1944.07454	0.24373
1942.14589	0.24180
1940.21724	0.23883
1938.28860	0.23589
1936.35995	0.23386
1934.43131	0.23324
1932.50266	0.23400
1930.57402	0.23575
1928.64537	0.23797
1926.71673	0.24019
1924.78808	0.24197
1922.85944	0.24278
1920.93079	0.24194
1919.00215	0.23893
1917.07350	0.23372
1915.14485	0.22704
1913.21621	0.22032
1911.28756	0.21515
1909.35892	0.21270
1907.43027	0.21326
1905.50163	0.21626
1903.57298	0.22053
1901.64434	0.22485
1899.71569	0.22841
1897.78705	0.23096
1895.85840	0.23257
1893.92976	0.23351
1892.00111	0.23418
1890.07246	0.23493
1888.14382	0.23588
1886.21517	0.23687
1884.28653	0.23758
1882.35788	0.23768
1880.42924	0.23692
1878.50059	0.23537
1876.57195	0.23350
1874.64330	0.23192
1872.71466	0.23104
1870.78601	0.23077
1868.85737	0.23054
1866.92872	0.22962
1865.00008	0.22757
1863.07143	0.22450
1861.14278	0.22110
1859.21414	0.21833
1857.28549	0.21698
1855.35685	0.21722
1853.42820	0.21850
1851.49956	0.21982
1849.57091	0.22021
1847.64227	0.21913
1845.71362	0.21670
1843.78498	0.21356
1841.85633	0.21054
1839.92769	0.20821
1837.99904	0.20665
1836.07039	0.20547
1834.14175	0.20415
1832.21310	0.20243
1830.28446	0.20042
1828.35581	0.19856
1826.42717	0.19738
1824.49852	0.19719
1822.56988	0.19796
1820.64123	0.19933
1818.71259	0.20083
1816.78394	0.20204
1814.85530	0.20278
1812.92665	0.20309
1810.99800	0.20313
1809.06936	0.20305
1807.14071	0.20287
1805.21207	0.20259
1803.28342	0.20219
1801.35478	0.20176
1799.42613	0.20154
1797.49749	0.20192
1795.56884	0.20319
1793.64020	0.20535
1791.71155	0.20808
1789.78291	0.21078
1787.85426	0.21284
1785.92561	0.21384
1783.99697	0.21370
1782.06832	0.21267
1780.13968	0.21125
1778.21103	0.20990
1776.28239	0.20898
1774.35374	0.20862
1772.42510	0.20878
1770.49645	0.20927
1768.56781	0.20982
1766.63916	0.21023
1764.71052	0.21049
1762.78187	0.21096
1760.85322	0.21225
1758.92458	0.21503
1756.99593	0.21973
1755.06729	0.22636
1753.13864	0.23442
1751.21000	0.24309
1749.28135	0.25158
1747.35271	0.25944
1745.42406	0.26665
1743.49542	0.27334
1741.56677	0.27966
1739.63813	0.28553
1737.70948	0.29064
1735.78084	0.29459
1733.85219	0.29704
1731.92354	0.29798
1729.99490	0.29788
1728.06625	0.29752
1726.13761	0.29771
1724.20896	0.29898
1722.28032	0.30130
1720.35167	0.30410
1718.42303	0.30648
1716.49438	0.30773
1714.56574	0.30776
1712.63709	0.30731
1710.70845	0.30768
1708.77980	0.31016
1706.85115	0.31554
1704.92251	0.32373
1702.99386	0.33378
1701.06522	0.34429
1699.13657	0.35407
1697.20793	0.36268
1695.27928	0.37055
1693.35064	0.37875
1691.42199	0.38841
1689.49335	0.40014
1687.56470	0.41377
1685.63606	0.42851
1683.70741	0.44338
1681.77876	0.45777
1679.85012	0.47165
1677.92147	0.48543
1675.99283	0.49961
1674.06418	0.51455
1672.13554	0.53021
1670.20689	0.54624
1668.27825	0.56216
1666.34960	0.57775
1664.42096	0.59312
1662.49231	0.60856
1660.56367	0.62431
1658.63502	0.64029
1656.70637	0.65595
1654.77773	0.67018
1652.84908	0.68168
1650.92044	0.68960
1648.99179	0.69391
1647.06315	0.69535
1645.13450	0.69512
1643.20586	0.69436
1641.27721	0.69373
1639.34857	0.69313
1637.41992	0.69191
1635.49128	0.68927
1633.56263	0.68467
1631.63399	0.67805
1629.70534	0.66980
1627.77669	0.66049
1625.84805	0.65066
1623.91940	0.64066
1621.99076	0.63062
1620.06211	0.62047
1618.13347	0.61011
1616.20482	0.59954
1614.27618	0.58894
1612.34753	0.57871
1610.41889	0.56932
1608.49024	0.56123
1606.56160	0.55471
1604.63295	0.54972
1602.70430	0.54586
1600.77566	0.54246
1598.84701	0.53880
1596.91837	0.53435
1594.98972	0.52887
1593.06108	0.52253
1591.13243	0.51577
1589.20379	0.50924
1587.27514	0.50355
1585.34650	0.49910
1583.41785	0.49600
1581.48921	0.49408
1579.56056	0.49296
1577.63191	0.49215
1575.70327	0.49113
1573.77462	0.48964
1571.84598	0.48785
1569.91733	0.48635
1567.98869	0.48587
1566.06004	0.48690
1564.13140	0.48929
1562.20275	0.49208
1560.27411	0.49374
1558.34546	0.49278
1556.41682	0.48857
1554.48817	0.48169
1552.55952	0.47362
1550.63088	0.46613
1548.70223	0.46043
1546.77359	0.45662
1544.84494	0.45370
1542.91630	0.45009
1540.98765	0.44442
1539.05901	0.43612
1537.13036	0.42569
1535.20172	0.41438
1533.27307	0.40374
1531.34443	0.39499
1529.41578	0.38870
1527.48713	0.38469
1525.55849	0.38216
1523.62984	0.37995
1521.70120	0.37697
1519.77255	0.37251
1517.84391	0.36643
1515.91526	0.35906
1513.98662	0.35091
1512.05797	0.34239
1510.12933	0.33364
1508.20068	0.32453
1506.27204	0.31495
1504.34339	0.30499
1502.41475	0.29506
1500.48610	0.28571
1498.55745	0.27732
1496.62881	0.26997
1494.70016	0.26351
1492.77152	0.25774
1490.84287	0.25254
1488.91423	0.24793
1486.98558	0.24418
1485.05694	0.24169
1483.12829	0.24104
1481.19965	0.24281
1479.27100	0.24744
1477.34236	0.25505
1475.41371	0.26511
1473.48506	0.27648
1471.55642	0.28769
1469.62777	0.29745
1467.69913	0.30510
1465.77048	0.31062
1463.84184	0.31438
1461.91319	0.31676
1459.98455	0.31787
1458.05590	0.31755
1456.12726	0.31555
1454.19861	0.31193
1452.26997	0.30716
1450.34132	0.30195
1448.41267	0.29706
1446.48403	0.29308
1444.55538	0.29040
1442.62674	0.28913
1440.69809	0.28922
1438.76945	0.29039
1436.84080	0.29224
1434.91216	0.29437
1432.98351	0.29655
1431.05487	0.29889
1429.12622	0.30171
1427.19758	0.30529
1425.26893	0.30969
1423.34028	0.31460
1421.41164	0.31941
1419.48299	0.32359
1417.55435	0.32689
1415.62570	0.32950
1413.69706	0.33184
1411.76841	0.33432
1409.83977	0.33703
1407.91112	0.33975
1405.98248	0.34208
1404.05383	0.34361
1402.12519	0.34418
1400.19654	0.34387
1398.26789	0.34298
1396.33925	0.34188
1394.41060	0.34088
1392.48196	0.34012
1390.55331	0.33966
1388.62467	0.33938
1386.69602	0.33907
1384.76738	0.33840
1382.83873	0.33705
1380.91009	0.33476
1378.98144	0.33139
1377.05280	0.32697
1375.12415	0.32164
1373.19551	0.31562
1371.26686	0.30904
1369.33821	0.30198
1367.40957	0.29455
1365.48092	0.28693
1363.55228	0.27950
1361.62363	0.27268
1359.69499	0.26681
1357.76634	0.26201
1355.83770	0.25810
1353.90905	0.25469
1351.98041	0.25138
1350.05176	0.24797
1348.12312	0.24453
1346.19447	0.24128
1344.26582	0.23847
1342.33718	0.23625
1340.40853	0.23465
1338.47989	0.23355
1336.55124	0.23274
1334.62260	0.23202
1332.69395	0.23119
1330.76531	0.23006
1328.83666	0.22855
1326.90802	0.22672
1324.97937	0.22484
1323.05073	0.22330
1321.12208	0.22243
1319.19343	0.22239
1317.26479	0.22311
1315.33614	0.22421
1313.40750	0.22517
1311.47885	0.22550
1309.55021	0.22498
1307.62156	0.22365
1305.69292	0.22182
1303.76427	0.21994
1301.83563	0.21846
1299.90698	0.21774
1297.97834	0.21789
1296.04969	0.21881
1294.12104	0.22024
1292.19240	0.22189
1290.26375	0.22359
1288.33511	0.22531
1286.40646	0.22717
1284.47782	0.22945
1282.54917	0.23242
1280.62053	0.23619
1278.69188	0.24064
1276.76324	0.24545
1274.83459	0.25020
1272.90595	0.25452
1270.97730	0.25824
1269.04866	0.26144
1267.12001	0.26440
1265.19136	0.26741
1263.26272	0.27059
1261.33407	0.27384
1259.40543	0.27692
1257.47678	0.27961
1255.54814	0.28187
1253.61949	0.28386
1251.69085	0.28588
1249.76220	0.28828
1247.83356	0.29131
1245.90491	0.29506
1243.97627	0.29951
1242.04762	0.30455
1240.11897	0.31003
1238.19033	0.31578
1236.26168	0.32161
1234.33304	0.32729
1232.40439	0.33267
1230.47575	0.33774
1228.54710	0.34262
1226.61846	0.34761
1224.68981	0.35309
1222.76117	0.35943
1220.83252	0.36680
1218.90388	0.37515
1216.97523	0.38419
1215.04658	0.39355
1213.11794	0.40289
1211.18929	0.41199
1209.26065	0.42080
1207.33200	0.42939
1205.40336	0.43786
1203.47471	0.44630
1201.54607	0.45494
1199.61742	0.46419
1197.68878	0.47453
1195.76013	0.48628
1193.83149	0.49948
1191.90284	0.51379
1189.97419	0.52847
1188.04555	0.54267
1186.11690	0.55599
1184.18826	0.56871
1182.25961	0.58160
1180.33097	0.59550
1178.40232	0.61105
1176.47368	0.62863
1174.54503	0.64829
1172.61639	0.66974
1170.68774	0.69232
1168.75910	0.71500
1166.83045	0.73619
1164.90180	0.75408
1162.97316	0.76739
1161.04451	0.77620
1159.11587	0.78221
1157.18722	0.78818
1155.25858	0.79693
1153.32993	0.81027
1151.40129	0.82850
1149.47264	0.85066
1147.54400	0.87513
1145.61535	0.90047
1143.68671	0.92583
1141.75806	0.95120
1139.82942	0.97733
1137.90077	1.00537
1135.97212	1.03642
1134.04348	1.07098
1132.11483	1.10855
1130.18619	1.14766
1128.25754	1.18636
1126.32890	1.22306
1124.40025	1.25705
1122.47161	1.28856
1120.54296	1.31835
1118.61432	1.34725
1116.68567	1.37581
1114.75703	1.40427
1112.82838	1.43285
1110.89973	1.46214
1108.97109	1.49290
1107.04244	1.52575
1105.11380	1.56099
1103.18515	1.59855
1101.25651	1.63771
1099.32786	1.67706
1097.39922	1.71506
1095.47057	1.75077
1093.54193	1.78388
1091.61328	1.81447
1089.68464	1.84275
1087.75599	1.86880
1085.82734	1.89208
1083.89870	1.91145
1081.97005	1.92572
1080.04141	1.93434
1078.11276	1.93766
1076.18412	1.93679
1074.25547	1.93338
1072.32683	1.92929
1070.39818	1.92615
1068.46954	1.92504
1066.54089	1.92604
1064.61225	1.92805
1062.68360	1.92917
1060.75495	1.92754
1058.82631	1.92208
1056.89766	1.91286
1054.96902	1.90117
1053.04037	1.88941
1051.11173	1.88024
1049.18308	1.87589
1047.25444	1.87778
1045.32579	1.88655
1043.39715	1.90176
1041.46850	1.92171
1039.53986	1.94377
1037.61121	1.96492
1035.68256	1.98242
1033.75392	1.99435
1031.82527	2.00000
1029.89663	1.99981
1027.96798	1.99494
1026.03934	1.98674
1024.11069	1.97641
1022.18205	1.96492
1020.25340	1.95310
1018.32476	1.94148
1016.39611	1.93012
1014.46747	1.91870
1012.53882	1.90678
1010.61018	1.89386
1008.68153	1.87957
1006.75288	1.86393
1004.82424	1.84726
1002.89559	1.82976
1000.96695	1.81135
999.03830	1.79197
997.10966	1.77177
995.18101	1.75099
993.25237	1.72977
991.32372	1.70780
989.39508	1.68401
987.46643	1.65666
985.53779	1.62411
983.60914	1.58524
981.68049	1.53981
979.75185	1.48852
977.82320	1.43259
975.89456	1.37313
973.96591	1.31093
972.03727	1.24702
970.10862	1.18304
968.17998	1.12102
966.25133	1.06303
964.32269	1.01062
962.39404	0.96406
960.46540	0.92228
958.53675	0.88362
956.60810	0.84696
954.67946	0.81224
952.75081	0.78042
950.82217	0.75292
948.89352	0.73076
946.96488	0.71400
945.03623	0.70166
943.10759	0.69200
941.17894	0.68307
939.25030	0.67332
937.32165	0.66204
935.39301	0.64932
933.46436	0.63597
931.53571	0.62323
929.60707	0.61233
927.67842	0.60396
925.74978	0.59806
923.82113	0.59404
921.89249	0.59105
919.96384	0.58833
918.03520	0.58525
916.10655	0.58129
914.17791	0.57614
912.24926	0.56957
910.32062	0.56100
908.39197	0.54941
906.46333	0.53410
904.53468	0.51538
902.60603	0.49418
900.67739	0.47187
898.74874	0.45040
896.82010	0.43174
894.89145	0.41651
892.96281	0.40378
891.03416	0.39230
889.10552	0.38130
887.17687	0.37026
885.24823	0.35913
883.31958	0.34868
881.39094	0.33959
879.46229	0.33140
877.53364	0.32288
875.60500	0.31341
873.67635	0.30319
871.74771	0.29289
869.81906	0.28364
867.89042	0.27648
865.96177	0.27126
864.03313	0.26654
862.10448	0.26074
860.17584	0.25328
858.24719	0.24464
856.31855	0.23602
854.38990	0.22897
852.46125	0.22468
850.53261	0.22321
848.60396	0.22361
846.67532	0.22467
844.74667	0.22560
842.81803	0.22622
840.88938	0.22698
838.96074	0.22881
837.03209	0.23261
835.10345	0.23863
833.17480	0.24597
831.24616	0.25284
829.31751	0.25724
827.38886	0.25790
825.46022	0.25495
823.53157	0.24970
821.60293	0.24392
819.67428	0.23933
817.74564	0.23748
815.81699	0.23994
813.88835	0.24877
811.95970	0.26690
810.03106	0.29730
808.10241	0.34082
806.17377	0.39437
804.24512	0.45081
802.31647	0.50045
800.38783	0.53373
798.45918	0.54457
796.53054	0.53282
794.60189	0.50454
792.67325	0.46995
790.74460	0.44003
788.81596	0.42285
786.88731	0.42111
784.95867	0.43198
783.03002	0.44869
781.10138	0.46301
779.17273	0.46818
777.24409	0.46112
775.31544	0.44281
773.38679	0.41692
771.45815	0.38827
769.52950	0.36145
767.60086	0.33961
765.67221	0.32394
763.74357	0.31403
761.81492	0.30862
759.88628	0.30606
757.95763	0.30509
756.02899	0.30545
754.10034	0.30761
752.17170	0.31159
750.24305	0.31619
748.31440	0.31932
746.38576	0.31900
744.45711	0.31436
742.52847	0.30642
740.59982	0.29778
738.67118	0.29105
736.74253	0.28727
734.81389	0.28529
732.88524	0.28305
730.95660	0.27964
729.02795	0.27592
727.09931	0.27377
725.17066	0.27452
723.24201	0.27796
721.31337	0.28235
719.38472	0.28527
717.45608	0.28509
715.52743	0.28199
713.59879	0.27773
711.67014	0.27449
709.74150	0.27384
707.81285	0.27639
705.88421	0.28199
703.95556	0.29000
702.02692	0.29944
700.09827	0.30904
698.16962	0.31731
696.24098	0.32285
694.31233	0.32478
692.38369	0.32300
690.45504	0.31815
688.52640	0.31144
686.59775	0.30423
684.66911	0.29750
682.74046	0.29175
680.81182	0.28730
678.88317	0.28450
676.95453	0.28356
675.02588	0.28437
673.09723	0.28648
671.16859	0.28902
669.23994	0.29077
667.31130	0.29069
665.38265	0.28865
663.45401	0.28558
661.52536	0.28267
659.59672	0.28095
657.66807	0.28094
655.73943	0.28249
653.81078	0.28481
651.88214	0.28684
649.95349	0.28778
648.02485	0.28719
646.09620	0.28486
644.16755	0.28084
642.23891	0.27557
640.31026	0.26994
638.38162	0.26536
636.45297	0.26375
634.52433	0.26669
632.59568	0.27361
630.66704	0.28115
628.73839	0.28498
626.80975	0.28288
624.88110	0.27635
622.95246	0.27025
621.02381	0.27113
619.09516	0.28432
617.16652	0.30981
615.23787	0.34084
613.30923	0.36792
611.38058	0.38451
609.45194	0.38966
607.52329	0.38680
605.59465	0.38148
603.66600	0.37916
601.73736	0.38227
599.80871	0.38888
597.88007	0.39492
595.95142	0.39778
594.02277	0.39817
592.09413	0.39914
590.16548	0.40421
588.23684	0.41582
586.30819	0.43408
584.37955	0.45636
582.45090	0.47840
580.52226	0.49636
578.59361	0.50869
576.66497	0.51668
574.73632	0.52374
572.80768	0.53379
570.87903	0.54985
568.95038	0.57315
567.02174	0.60306
565.09309	0.63764
563.16445	0.67443
561.23580	0.71131
559.30716	0.74684
557.37851	0.78026
555.44987	0.81117
553.52122	0.83963
551.59258	0.86663
549.66393	0.89417
547.73529	0.92461
545.80664	0.95957
543.87800	0.99917
541.94935	1.04181
540.02070	1.08486
538.09206	1.12571
536.16341	1.16284
534.23477	1.19595
532.30612	1.22515
530.37748	1.25000
528.44883	1.26908
526.52019	1.28050
524.59154	1.28303
522.66290	1.27700
520.73425	1.26414
518.80561	1.24648
516.87696	1.22517
514.94831	1.20007
513.01967	1.17057
511.09102	1.13687
509.16238	1.10084
507.23373	1.06590
505.30509	1.03580
503.37644	1.01354
501.44780	1.00077
499.51915	0.99823
497.59051	1.00663
495.66186	1.02714
493.73322	1.06115
491.80457	1.10963
489.87592	1.17275
487.94728	1.24985
486.01863	1.33933
484.08999	1.43848
482.16134	1.54326
480.23270	1.64823
478.30405	1.74686
476.37541	1.83249
474.44676	1.89978
472.51812	1.94575
470.58947	1.96987
468.66083	1.97352
466.73218	1.95910
464.80353	1.92924
462.87489	1.88611
460.94624	1.83114
459.01760	1.76508
457.08895	1.68840
455.16031	1.60213
453.23166	1.50879
451.30302	1.41285
449.37437	1.32022
447.44573	1.23696
445.51708	1.16769
443.58844	1.11432
441.65979	1.07582
439.73114	1.04925
437.80250	1.03122
435.87385	1.01879
433.94521	1.00971
432.01656	1.00233
430.08792	0.99536
428.15927	0.98773
426.23063	0.97878
424.30198	0.96833
422.37334	0.95649
420.44469	0.94300
418.51605	0.92676
416.58740	0.90612
414.65876	0.87984
412.73011	0.84848
410.80146	0.81561
408.87282	0.78766
406.94417	0.77196
405.01553	0.77336
403.08688	0.79093
401.15824	0.81666
399.22959	0.83721
397.30095	0.83868
395.37230	0.81227
393.44366	0.75823
391.51501	0.68607
389.58637	0.61115
387.65772	0.54929
385.72907	0.51195
383.80043	0.50358
381.87178	0.52162
379.94314	0.55822
378.01449	0.60246
376.08585	0.64259
374.15720	0.66828
372.22856	0.67282
370.29991	0.65468
368.37127	0.61785
366.44262	0.57062
364.51398	0.52293
362.58533	0.48308
360.65668	0.45525
358.72804	0.43891
356.79939	0.43001
354.87075	0.42319
352.94210	0.41397
351.01346	0.40025
349.08481	0.38237
347.15617	0.36208
345.22752	0.34108
343.29888	0.32010
341.37023	0.29918
339.44159	0.27834
337.51294	0.25818
335.58429	0.23981
333.65565	0.22418
331.72700	0.21135
329.79836	0.20017
327.86971	0.18879
325.94107	0.17584
324.01242	0.16142
322.08378	0.14711
320.15513	0.13504
318.22649	0.12675
316.29784	0.12254
314.36920	0.12144
312.44055	0.12145
310.51190	0.12019
308.58326	0.11565
306.65461	0.10696
304.72597	0.09490
302.79732	0.08047
300.86868	0.06590
298.94003	0.05328
297.01139	0.04386
295.08274	0.03785
293.15410	0.03484
291.22545	0.03443
289.29681	0.03640
287.36816	0.04049
285.43952	0.04587
283.51087	0.05089
281.58222	0.05351
279.65358	0.05241
277.72493	0.04802
275.79629	0.04262
273.86764	0.03949
271.93900	0.04137
270.01035	0.04919
268.08171	0.06133
266.15306	0.07414
264.22442	0.08357
262.29577	0.08721
260.36713	0.08537
258.43848	0.08060
256.50983	0.07631
254.58119	0.07501
252.65254	0.07710
250.72390	0.08073
248.79525	0.08281
246.86661	0.08061
244.93796	0.07291
243.00932	0.06041
241.08067	0.04555
239.15203	0.03152
237.22338	0.02099
235.29474	0.01489
233.36609	0.01225
231.43744	0.01087
229.50880	0.00871
227.58015	0.00516
225.65151	0.00150
223.72286	0.00000
221.79422	0.00232
219.86557	0.00867
217.93693	0.01795
216.00828	0.02825
214.07964	0.03759
212.15099	0.04451
210.22235	0.04811
208.29370	0.04805
206.36505	0.04527
204.43641	0.04274
202.50776	0.04461
200.57912	0.05415
198.65047	0.07197
196.72183	0.09488
194.79318	0.11598
192.86454	0.12701
190.93589	0.12266
189.00725	0.10387
187.07860	0.07776
185.14996	0.05476
183.22131	0.04434
181.29267	0.05031
179.36402	0.06806
177.43537	0.08611
175.50673	0.09210
173.57808	0.07973
171.64944	0.05277
169.72079	0.02333
167.79215	0.00521
165.86350	0.00587
163.93486	0.02200
162.00621	0.03975
160.07757	0.05154
158.14892	0.05309
156.22028	0.04588
154.29163	0.04588
152.36298	0.04588
150.43434	0.04588
148.50569	0.04588
