4497.60101	0.09017
4495.67236	0.09017
4493.74372	0.09017
4491.81507	0.09017
4489.88643	0.09017
4487.95778	0.09628
4486.02914	0.10393
4484.10049	0.11040
4482.17185	0.11289
4480.24320	0.10965
4478.31455	0.10190
4476.38591	0.09333
4474.45726	0.08765
4472.52862	0.08642
4470.59997	0.08836
4468.67133	0.09062
4466.74268	0.09099
4464.81404	0.08924
4462.88539	0.08694
4460.95675	0.08652
4459.02810	0.08960
4457.09946	0.09569
4455.17081	0.10232
4453.24216	0.10671
4451.31352	0.10745
4449.38487	0.10481
4447.45623	0.10004
4445.52758	0.09467
4443.59894	0.08978
4441.67029	0.08535
4439.74165	0.08051
4437.81300	0.07449
4435.88436	0.06759
4433.95571	0.06121
4432.02707	0.05685
4430.09842	0.05540
4428.16978	0.05690
4426.24113	0.06064
4424.31248	0.06559
4422.38384	0.07067
4420.45519	0.07488
4418.52655	0.07754
4416.59790	0.07821
4414.66926	0.07655
4412.74061	0.07286
4410.81197	0.06871
4408.88332	0.06647
4406.95468	0.06787
4405.02603	0.07285
4403.09739	0.07987
4401.16874	0.08658
4399.24009	0.09084
4397.31145	0.09191
4395.38280	0.09088
4393.45416	0.08974
4391.52551	0.09010
4389.59687	0.09262
4387.66822	0.09681
4385.73958	0.10114
4383.81093	0.10386
4381.88229	0.10401
4379.95364	0.10173
4378.02500	0.09778
4376.09635	0.09313
4374.16770	0.08882
4372.23906	0.08545
4370.31041	0.08296
4368.38177	0.08121
4366.45312	0.08053
4364.52448	0.08142
4362.59583	0.08397
4360.66719	0.08759
4358.73854	0.09107
4356.80990	0.09281
4354.88125	0.09161
4352.95261	0.08788
4351.02396	0.08348
4349.09531	0.08035
4347.16667	0.07988
4345.23802	0.08281
4343.30938	0.08874
4341.38073	0.09570
4339.45209	0.10117
4337.52344	0.10349
4335.59480	0.10218
4333.66615	0.09792
4331.73751	0.09262
4329.80886	0.08886
4327.88022	0.08838
4325.95157	0.09108
4324.02292	0.09522
4322.09428	0.09827
4320.16563	0.09842
4318.23699	0.09591
4316.30834	0.09273
4314.37970	0.09088
4312.45105	0.09139
4310.52241	0.09423
4308.59376	0.09845
4306.66512	0.10260
4304.73647	0.10564
4302.80783	0.10720
4300.87918	0.10689
4298.95054	0.10408
4297.02189	0.09840
4295.09324	0.09026
4293.16460	0.08082
4291.23595	0.07177
4289.30731	0.06475
4287.37866	0.06067
4285.45002	0.05955
4283.52137	0.06116
4281.59273	0.06538
4279.66408	0.07182
4277.73544	0.07947
4275.80679	0.08667
4273.87815	0.09157
4271.94950	0.09264
4270.02085	0.08909
4268.09221	0.08159
4266.16356	0.07234
4264.23492	0.06427
4262.30627	0.05976
4260.37763	0.05967
4258.44898	0.06311
4256.52034	0.06808
4254.59169	0.07245
4252.66305	0.07499
4250.73440	0.07587
4248.80576	0.07613
4246.87711	0.07672
4244.94846	0.07781
4243.01982	0.07871
4241.09117	0.07845
4239.16253	0.07647
4237.23388	0.07307
4235.30524	0.06920
4233.37659	0.06582
4231.44795	0.06337
4229.51930	0.06215
4227.59066	0.06244
4225.66201	0.06404
4223.73337	0.06617
4221.80472	0.06800
4219.87607	0.06934
4217.94743	0.07038
4216.01878	0.07132
4214.09014	0.07212
4212.16149	0.07246
4210.23285	0.07183
4208.30420	0.07004
4206.37556	0.06764
4204.44691	0.06598
4202.51827	0.06646
4200.58962	0.06929
4198.66098	0.07293
4196.73233	0.07486
4194.80368	0.07327
4192.87504	0.06823
4190.94639	0.06143
4189.01775	0.05524
4187.08910	0.05176
4185.16046	0.05189
4183.23181	0.05475
4181.30317	0.05807
4179.37452	0.05982
4177.44588	0.05958
4175.51723	0.05853
4173.58859	0.05829
4171.65994	0.06014
4169.73130	0.06441
4167.80265	0.07014
4165.87400	0.07526
4163.94536	0.07792
4162.01671	0.07782
4160.08807	0.07608
4158.15942	0.07410
4156.23078	0.07280
4154.30213	0.07228
4152.37349	0.07185
4150.44484	0.07033
4148.51620	0.06692
4146.58755	0.06212
4144.65891	0.05740
4142.73026	0.05432
4140.80161	0.05354
4138.87297	0.05479
4136.94432	0.05718
4135.01568	0.05962
4133.08703	0.06138
4131.15839	0.06242
4129.22974	0.06301
4127.30110	0.06312
4125.37245	0.06236
4123.44381	0.06056
4121.51516	0.05803
4119.58652	0.05533
4117.65787	0.05317
4115.72922	0.05230
4113.80058	0.05318
4111.87193	0.05576
4109.94329	0.05968
4108.01464	0.06412
4106.08600	0.06770
4104.15735	0.06889
4102.22871	0.06682
4100.30006	0.06180
4098.37142	0.05514
4096.44277	0.04864
4094.51413	0.04395
4092.58548	0.04201
4090.65683	0.04280
4088.72819	0.04559
4086.79954	0.04930
4084.87090	0.05272
4082.94225	0.05470
4081.01361	0.05462
4079.08496	0.05280
4077.15632	0.05053
4075.22767	0.04946
4073.29903	0.05067
4071.37038	0.05419
4069.44174	0.05912
4067.51309	0.06408
4065.58444	0.06796
4063.65580	0.07041
4061.72715	0.07164
4059.79851	0.07198
4057.86986	0.07161
4055.94122	0.07060
4054.01257	0.06909
4052.08393	0.06743
4050.15528	0.06615
4048.22664	0.06577
4046.29799	0.06643
4044.36935	0.06778
4042.44070	0.06917
4040.51206	0.06991
4038.58341	0.06960
4036.65476	0.06822
4034.72612	0.06615
4032.79747	0.06418
4030.86883	0.06329
4028.94018	0.06406
4027.01154	0.06627
4025.08289	0.06901
4023.15425	0.07098
4021.22560	0.07094
4019.29696	0.06839
4017.36831	0.06412
4015.43967	0.05967
4013.51102	0.05636
4011.58237	0.05469
4009.65373	0.05445
4007.72508	0.05527
4005.79644	0.05632
4003.86779	0.05758
4001.93915	0.05942
4000.01050	0.06210
3998.08186	0.06532
3996.15321	0.06828
3994.22457	0.06997
3992.29592	0.06962
3990.36728	0.06702
3988.43863	0.06265
3986.50998	0.05745
3984.58134	0.05257
3982.65269	0.04913
3980.72405	0.04793
3978.79540	0.04912
3976.86676	0.05207
3974.93811	0.05552
3973.00947	0.05798
3971.08082	0.05813
3969.15218	0.05545
3967.22353	0.05047
3965.29489	0.04478
3963.36624	0.04041
3961.43759	0.03903
3959.50895	0.04131
3957.58030	0.04661
3955.65166	0.05329
3953.72301	0.05938
3951.79437	0.06348
3949.86572	0.06529
3947.93708	0.06547
3946.00843	0.06516
3944.07979	0.06533
3942.15114	0.06636
3940.22250	0.06789
3938.29385	0.06918
3936.36521	0.06963
3934.43656	0.06927
3932.50791	0.06870
3930.57927	0.06877
3928.65062	0.07016
3926.72198	0.07297
3924.79333	0.07652
3922.86469	0.07958
3920.93604	0.08081
3919.00740	0.07938
3917.07875	0.07533
3915.15011	0.06962
3913.22146	0.06377
3911.29282	0.05928
3909.36417	0.05709
3907.43552	0.05726
3905.50688	0.05906
3903.57823	0.06140
3901.64959	0.06333
3899.72094	0.06440
3897.79230	0.06472
3895.86365	0.06489
3893.93501	0.06552
3892.00636	0.06697
3890.07772	0.06914
3888.14907	0.07161
3886.22043	0.07373
3884.29178	0.07491
3882.36313	0.07491
3880.43449	0.07404
3878.50584	0.07303
3876.57720	0.07261
3874.64855	0.07317
3872.71991	0.07451
3870.79126	0.07590
3868.86262	0.07651
3866.93397	0.07609
3865.00533	0.07541
3863.07668	0.07587
3861.14804	0.07851
3859.21939	0.08324
3857.29074	0.08858
3855.36210	0.09220
3853.43345	0.09216
3851.50481	0.08812
3849.57616	0.08177
3847.64752	0.07586
3845.71887	0.07260
3843.79023	0.07258
3841.86158	0.07459
3839.93294	0.07636
3838.00429	0.07591
3836.07565	0.07271
3834.14700	0.06784
3832.21835	0.06322
3830.28971	0.06050
3828.36106	0.06038
3826.43242	0.06247
3824.50377	0.06559
3822.57513	0.06845
3820.64648	0.07023
3818.71784	0.07088
3816.78919	0.07100
3814.86055	0.07156
3812.93190	0.07366
3811.00326	0.07793
3809.07461	0.08402
3807.14597	0.09047
3805.21732	0.09520
3803.28867	0.09638
3801.36003	0.09322
3799.43138	0.08635
3797.50274	0.07775
3795.57409	0.06989
3793.64545	0.06482
3791.71680	0.06345
3789.78816	0.06542
3787.85951	0.06956
3785.93087	0.07435
3784.00222	0.07834
3782.07358	0.08049
3780.14493	0.08035
3778.21628	0.07813
3776.28764	0.07446
3774.35899	0.07024
3772.43035	0.06639
3770.50170	0.06366
3768.57306	0.06233
3766.64441	0.06227
3764.71577	0.06320
3762.78712	0.06509
3760.85848	0.06822
3758.92983	0.07320
3757.00119	0.08076
3755.07254	0.09098
3753.14389	0.10267
3751.21525	0.11334
3749.28660	0.12015
3747.35796	0.12111
3745.42931	0.11584
3743.50067	0.10586
3741.57202	0.09410
3739.64338	0.08366
3737.71473	0.07653
3735.78609	0.07302
3733.85744	0.07226
3731.92880	0.07271
3730.00015	0.07279
3728.07150	0.07135
3726.14286	0.06806
3724.21421	0.06362
3722.28557	0.05942
3720.35692	0.05699
3718.42828	0.05746
3716.49963	0.06095
3714.57099	0.06646
3712.64234	0.07226
3710.71370	0.07662
3708.78505	0.07846
3706.85641	0.07764
3704.92776	0.07479
3702.99911	0.07108
3701.07047	0.06788
3699.14182	0.06643
3697.21318	0.06751
3695.28453	0.07118
3693.35589	0.07652
3691.42724	0.08200
3689.49860	0.08619
3687.56995	0.08851
3685.64131	0.08961
3683.71266	0.09104
3681.78402	0.09447
3679.85537	0.10081
3677.92673	0.10953
3675.99808	0.11886
3674.06943	0.12652
3672.14079	0.13076
3670.21214	0.13104
3668.28350	0.12815
3666.35485	0.12398
3664.42621	0.12080
3662.49756	0.12059
3660.56892	0.12450
3658.64027	0.13278
3656.71163	0.14494
3654.78298	0.15990
3652.85434	0.17616
3650.92569	0.19204
3648.99704	0.20585
3647.06840	0.21623
3645.13975	0.22260
3643.21111	0.22564
3641.28246	0.22711
3639.35382	0.22932
3637.42517	0.23417
3635.49653	0.24239
3633.56788	0.25321
3631.63924	0.26464
3629.71059	0.27458
3627.78195	0.28200
3625.85330	0.28753
3623.92465	0.29302
3621.99601	0.30058
3620.06736	0.31134
3618.13872	0.32479
3616.21007	0.33878
3614.28143	0.35040
3612.35278	0.35739
3610.42414	0.35916
3608.49549	0.35697
3606.56685	0.35323
3604.63820	0.35051
3602.70956	0.35071
3600.78091	0.35462
3598.85226	0.36192
3596.92362	0.37172
3594.99497	0.38307
3593.06633	0.39513
3591.13768	0.40707
3589.20904	0.41815
3587.28039	0.42791
3585.35175	0.43633
3583.42310	0.44376
3581.49446	0.45087
3579.56581	0.45848
3577.63717	0.46711
3575.70852	0.47677
3573.77988	0.48704
3571.85123	0.49731
3569.92258	0.50692
3567.99394	0.51536
3566.06529	0.52257
3564.13665	0.52904
3562.20800	0.53566
3560.27936	0.54337
3558.35071	0.55277
3556.42207	0.56393
3554.49342	0.57631
3552.56478	0.58895
3550.63613	0.60078
3548.70749	0.61092
3546.77884	0.61882
3544.85019	0.62437
3542.92155	0.62793
3540.99290	0.63037
3539.06426	0.63302
3537.13561	0.63748
3535.20697	0.64515
3533.27832	0.65672
3531.34968	0.67180
3529.42103	0.68883
3527.49239	0.70560
3525.56374	0.71993
3523.63510	0.73055
3521.70645	0.73752
3519.77780	0.74222
3517.84916	0.74670
3515.92051	0.75276
3513.99187	0.76116
3512.06322	0.77154
3510.13458	0.78269
3508.20593	0.79311
3506.27729	0.80161
3504.34864	0.80784
3502.42000	0.81232
3500.49135	0.81608
3498.56271	0.82027
3496.63406	0.82568
3494.70541	0.83258
3492.77677	0.84060
3490.84812	0.84910
3488.91948	0.85754
3486.99083	0.86566
3485.06219	0.87340
3483.13354	0.88079
3481.20490	0.88778
3479.27625	0.89426
3477.34761	0.90024
3475.41896	0.90586
3473.49032	0.91139
3471.56167	0.91713
3469.63302	0.92334
3467.70438	0.93018
3465.77573	0.93763
3463.84709	0.94552
3461.91844	0.95348
3459.98980	0.96099
3458.06115	0.96761
3456.13251	0.97340
3454.20386	0.97913
3452.27522	0.98597
3450.34657	0.99483
3448.41793	1.00582
3446.48928	1.01793
3444.56064	1.02941
3442.63199	1.03855
3440.70334	1.04439
3438.77470	1.04694
3436.84605	1.04699
3434.91741	1.04561
3432.98876	1.04386
3431.06012	1.04270
3429.13147	1.04295
3427.20283	1.04533
3425.27418	1.05014
3423.34554	1.05705
3421.41689	1.06522
3419.48825	1.07352
3417.55960	1.08104
3415.63095	1.08733
3413.70231	1.09254
3411.77366	1.09703
3409.84502	1.10089
3407.91637	1.10390
3405.98773	1.10579
3404.05908	1.10659
3402.13044	1.10683
3400.20179	1.10749
3398.27315	1.10958
3396.34450	1.11356
3394.41586	1.11896
3392.48721	1.12472
3390.55856	1.12974
3388.62992	1.13343
3386.70127	1.13587
3384.77263	1.13756
3382.84398	1.13908
3380.91534	1.14065
3378.98669	1.14207
3377.05805	1.14299
3375.12940	1.14329
3373.20076	1.14307
3371.27211	1.14258
3369.34347	1.14194
3367.41482	1.14114
3365.48617	1.14010
3363.55753	1.13878
3361.62888	1.13733
3359.70024	1.13605
3357.77159	1.13521
3355.84295	1.13484
3353.91430	1.13461
3351.98566	1.13417
3350.05701	1.13347
3348.12837	1.13278
3346.19972	1.13255
3344.27108	1.13312
3342.34243	1.13454
3340.41378	1.13649
3338.48514	1.13839
3336.55649	1.13978
3334.62785	1.14046
3332.69920	1.14054
3330.77056	1.14011
3328.84191	1.13920
3326.91327	1.13788
3324.98462	1.13640
3323.05598	1.13515
3321.12733	1.13438
3319.19869	1.13415
3317.27004	1.13431
3315.34140	1.13461
3313.41275	1.13481
3311.48410	1.13482
3309.55546	1.13467
3307.62681	1.13444
3305.69817	1.13409
3303.76952	1.13358
3301.84088	1.13314
3299.91223	1.13331
3297.98359	1.13459
3296.05494	1.13710
3294.12630	1.14038
3292.19765	1.14354
3290.26901	1.14566
3288.34036	1.14612
3286.41171	1.14493
3284.48307	1.14257
3282.55442	1.13972
3280.62578	1.13690
3278.69713	1.13432
3276.76849	1.13196
3274.83984	1.12963
3272.91120	1.12708
3270.98255	1.12407
3269.05391	1.12042
3267.12526	1.11611
3265.19662	1.11128
3263.26797	1.10622
3261.33932	1.10132
3259.41068	1.09681
3257.48203	1.09268
3255.55339	1.08879
3253.62474	1.08498
3251.69610	1.08120
3249.76745	1.07758
3247.83881	1.07436
3245.91016	1.07175
3243.98152	1.06974
3242.05287	1.06809
3240.12423	1.06642
3238.19558	1.06446
3236.26693	1.06210
3234.33829	1.05940
3232.40964	1.05648
3230.48100	1.05342
3228.55235	1.05017
3226.62371	1.04653
3224.69506	1.04237
3222.76642	1.03773
3220.83777	1.03286
3218.90913	1.02801
3216.98048	1.02331
3215.05184	1.01875
3213.12319	1.01427
3211.19455	1.00988
3209.26590	1.00572
3207.33725	1.00201
3205.40861	0.99890
3203.47996	0.99615
3201.55132	0.99320
3199.62267	0.98947
3197.69403	0.98463
3195.76538	0.97869
3193.83674	0.97197
3191.90809	0.96496
3189.97945	0.95807
3188.05080	0.95145
3186.12216	0.94509
3184.19351	0.93899
3182.26486	0.93331
3180.33622	0.92823
3178.40757	0.92391
3176.47893	0.92039
3174.55028	0.91753
3172.62164	0.91505
3170.69299	0.91267
3168.76435	0.91029
3166.83570	0.90795
3164.90706	0.90573
3162.97841	0.90362
3161.04977	0.90140
3159.12112	0.89878
3157.19247	0.89550
3155.26383	0.89148
3153.33518	0.88682
3151.40654	0.88173
3149.47789	0.87639
3147.54925	0.87089
3145.62060	0.86522
3143.69196	0.85941
3141.76331	0.85358
3139.83467	0.84794
3137.90602	0.84262
3135.97738	0.83757
3134.04873	0.83262
3132.12008	0.82764
3130.19144	0.82262
3128.26279	0.81771
3126.33415	0.81322
3124.40550	0.80943
3122.47686	0.80647
3120.54821	0.80426
3118.61957	0.80265
3116.69092	0.80149
3114.76228	0.80057
3112.83363	0.79961
3110.90499	0.79824
3108.97634	0.79613
3107.04769	0.79299
3105.11905	0.78875
3103.19040	0.78368
3101.26176	0.77829
3099.33311	0.77319
3097.40447	0.76883
3095.47582	0.76538
3093.54718	0.76264
3091.61853	0.76003
3089.68989	0.75695
3087.76124	0.75304
3085.83260	0.74842
3083.90395	0.74360
3081.97531	0.73927
3080.04666	0.73598
3078.11801	0.73396
3076.18937	0.73305
3074.26072	0.73289
3072.33208	0.73304
3070.40343	0.73307
3068.47479	0.73261
3066.54614	0.73126
3064.61750	0.72871
3062.68885	0.72486
3060.76021	0.71999
3058.83156	0.71469
3056.90292	0.70963
3054.97427	0.70531
3053.04562	0.70185
3051.11698	0.69890
3049.18833	0.69581
3047.25969	0.69201
3045.33104	0.68733
3043.40240	0.68204
3041.47375	0.67661
3039.54511	0.67144
3037.61646	0.66669
3035.68782	0.66220
3033.75917	0.65774
3031.83053	0.65332
3029.90188	0.64924
3027.97323	0.64588
3026.04459	0.64340
3024.11594	0.64165
3022.18730	0.64020
3020.25865	0.63860
3018.33001	0.63675
3016.40136	0.63490
3014.47272	0.63343
3012.54407	0.63250
3010.61543	0.63185
3008.68678	0.63111
3006.75814	0.63001
3004.82949	0.62841
3002.90084	0.62637
3000.97220	0.62420
2999.04355	0.62230
2997.11491	0.62086
2995.18626	0.61981
2993.25762	0.61923
2991.32897	0.61943
2989.40033	0.62058
2987.47168	0.62260
2985.54304	0.62545
2983.61439	0.62921
2981.68575	0.63388
2979.75710	0.63941
2977.82845	0.64585
2975.89981	0.65328
2973.97116	0.66155
2972.04252	0.67044
2970.11387	0.67987
2968.18523	0.68993
2966.25658	0.70052
2964.32794	0.71101
2962.39929	0.72010
2960.47065	0.72619
2958.54200	0.72799
2956.61336	0.72525
2954.68471	0.71918
2952.75607	0.71223
2950.82742	0.70728
2948.89877	0.70644
2946.97013	0.71045
2945.04148	0.71859
2943.11284	0.72927
2941.18419	0.74105
2939.25555	0.75337
2937.32690	0.76679
2935.39826	0.78241
2933.46961	0.80123
2931.54097	0.82363
2929.61232	0.84930
2927.68368	0.87750
2925.75503	0.90689
2923.82638	0.93505
2921.89774	0.95805
2919.96909	0.97092
2918.04045	0.96904
2916.11180	0.95006
2914.18316	0.91535
2912.25451	0.87032
2910.32587	0.82263
2908.39722	0.77949
2906.46858	0.74540
2904.53993	0.72136
2902.61129	0.70555
2900.68264	0.69476
2898.75399	0.68578
2896.82535	0.67649
2894.89670	0.66632
2892.96806	0.65593
2891.03941	0.64637
2889.11077	0.63855
2887.18212	0.63301
2885.25348	0.62967
2883.32483	0.62775
2881.39619	0.62623
2879.46754	0.62454
2877.53890	0.62267
2875.61025	0.62079
2873.68160	0.61902
2871.75296	0.61734
2869.82431	0.61558
2867.89567	0.61372
2865.96702	0.61258
2864.03838	0.61419
2862.10973	0.62140
2860.18109	0.63659
2858.25244	0.66000
2856.32380	0.68850
2854.39515	0.71586
2852.46651	0.73443
2850.53786	0.73788
2848.60922	0.72367
2846.68057	0.69427
2844.75192	0.65608
2842.82328	0.61680
2840.89463	0.58268
2838.96599	0.55703
2837.03734	0.53992
2835.10870	0.52917
2833.18005	0.52194
2831.25141	0.51608
2829.32276	0.51063
2827.39412	0.50548
2825.46547	0.50087
2823.53683	0.49702
2821.60818	0.49385
2819.67953	0.49100
2817.75089	0.48806
2815.82224	0.48486
2813.89360	0.48149
2811.96495	0.47823
2810.03631	0.47540
2808.10766	0.47315
2806.17902	0.47136
2804.25037	0.46966
2802.32173	0.46769
2800.39308	0.46542
2798.46444	0.46312
2796.53579	0.46113
2794.60714	0.45973
2792.67850	0.45909
2790.74985	0.45902
2788.82121	0.45887
2786.89256	0.45791
2784.96392	0.45580
2783.03527	0.45265
2781.10663	0.44892
2779.17798	0.44519
2777.24934	0.44201
2775.32069	0.43961
2773.39205	0.43784
2771.46340	0.43631
2769.53475	0.43467
2767.60611	0.43293
2765.67746	0.43131
2763.74882	0.42997
2761.82017	0.42886
2759.89153	0.42780
2757.96288	0.42660
2756.03424	0.42512
2754.10559	0.42342
2752.17695	0.42186
2750.24830	0.42095
2748.31966	0.42089
2746.39101	0.42148
2744.46236	0.42226
2742.53372	0.42263
2740.60507	0.42201
2738.67643	0.42007
2736.74778	0.41685
2734.81914	0.41281
2732.89049	0.40858
2730.96185	0.40478
2729.03320	0.40199
2727.10456	0.40058
2725.17591	0.40049
2723.24727	0.40124
2721.31862	0.40214
2719.38998	0.40256
2717.46133	0.40219
2715.53268	0.40108
2713.60404	0.39960
2711.67539	0.39804
2709.74675	0.39639
2707.81810	0.39443
2705.88946	0.39193
2703.96081	0.38890
2702.03217	0.38567
2700.10352	0.38287
2698.17488	0.38117
2696.24623	0.38087
2694.31759	0.38169
2692.38894	0.38301
2690.46029	0.38413
2688.53165	0.38443
2686.60300	0.38354
2684.67436	0.38157
2682.74571	0.37890
2680.81707	0.37592
2678.88842	0.37293
2676.95978	0.37028
2675.03113	0.36835
2673.10249	0.36736
2671.17384	0.36731
2669.24520	0.36787
2667.31655	0.36840
2665.38790	0.36818
2663.45926	0.36690
2661.53061	0.36468
2659.60197	0.36197
2657.67332	0.35929
2655.74468	0.35712
2653.81603	0.35561
2651.88739	0.35446
2649.95874	0.35331
2648.03010	0.35207
2646.10145	0.35078
2644.17281	0.34934
2642.24416	0.34760
2640.31551	0.34543
2638.38687	0.34271
2636.45822	0.33935
2634.52958	0.33577
2632.60093	0.33290
2630.67229	0.33163
2628.74364	0.33218
2626.81500	0.33394
2624.88635	0.33561
2622.95771	0.33583
2621.02906	0.33405
2619.10042	0.33092
2617.17177	0.32783
2615.24312	0.32604
2613.31448	0.32608
2611.38583	0.32746
2609.45719	0.32914
2607.52854	0.33021
2605.59990	0.33047
2603.67125	0.33014
2601.74261	0.32939
2599.81396	0.32804
2597.88532	0.32573
2595.95667	0.32261
2594.02803	0.31962
2592.09938	0.31798
2590.17074	0.31839
2588.24209	0.32054
2586.31344	0.32301
2584.38480	0.32388
2582.45615	0.32198
2580.52751	0.31786
2578.59886	0.31328
2576.67022	0.30990
2574.74157	0.30852
2572.81293	0.30890
2570.88428	0.31000
2568.95564	0.31070
2567.02699	0.31062
2565.09835	0.31015
2563.16970	0.30989
2561.24105	0.31026
2559.31241	0.31147
2557.38376	0.31335
2555.45512	0.31534
2553.52647	0.31689
2551.59783	0.31769
2549.66918	0.31744
2547.74054	0.31573
2545.81189	0.31233
2543.88325	0.30751
2541.95460	0.30188
2540.02596	0.29634
2538.09731	0.29219
2536.16866	0.29079
2534.24002	0.29270
2532.31137	0.29725
2530.38273	0.30295
2528.45408	0.30814
2526.52544	0.31126
2524.59679	0.31125
2522.66815	0.30770
2520.73950	0.30124
2518.81086	0.29381
2516.88221	0.28825
2514.95357	0.28713
2513.02492	0.29137
2511.09627	0.29969
2509.16763	0.30885
2507.23898	0.31497
2505.31034	0.31558
2503.38169	0.31118
2501.45305	0.30473
2499.52440	0.29944
2497.59576	0.29701
2495.66711	0.29731
2493.73847	0.29905
2491.80982	0.30080
2489.88118	0.30177
2487.95253	0.30204
2486.02389	0.30192
2484.09524	0.30115
2482.16659	0.29885
2480.23795	0.29434
2478.30930	0.28811
2476.38066	0.28193
2474.45201	0.27793
2472.52337	0.27744
2470.59472	0.28040
2468.66608	0.28574
2466.73743	0.29181
2464.80879	0.29694
2462.88014	0.30005
2460.95150	0.30095
2459.02285	0.29998
2457.09420	0.29760
2455.16556	0.29455
2453.23691	0.29209
2451.30827	0.29139
2449.37962	0.29264
2447.45098	0.29500
2445.52233	0.29712
2443.59369	0.29788
2441.66504	0.29667
2439.73640	0.29367
2437.80775	0.28999
2435.87911	0.28713
2433.95046	0.28607
2432.02181	0.28677
2430.09317	0.28840
2428.16452	0.28994
2426.23588	0.29056
2424.30723	0.28993
2422.37859	0.28870
2420.44994	0.28819
2418.52130	0.28916
2416.59265	0.29115
2414.66401	0.29275
2412.73536	0.29269
2410.80672	0.29050
2408.87807	0.28670
2406.94942	0.28278
2405.02078	0.28049
2403.09213	0.28089
2401.16349	0.28391
2399.23484	0.28867
2397.30620	0.29398
2395.37755	0.29878
2393.44891	0.30229
2391.52026	0.30416
2389.59162	0.30445
2387.66297	0.30338
2385.73433	0.30123
2383.80568	0.29831
2381.87703	0.29510
2379.94839	0.29222
2378.01974	0.29025
2376.09110	0.28953
2374.16245	0.29000
2372.23381	0.29118
2370.30516	0.29224
2368.37652	0.29241
2366.44787	0.29147
2364.51923	0.28994
2362.59058	0.28871
2360.66194	0.28864
2358.73329	0.29035
2356.80465	0.29413
2354.87600	0.29965
2352.94735	0.30585
2351.01871	0.31127
2349.09006	0.31447
2347.16142	0.31443
2345.23277	0.31073
2343.30413	0.30399
2341.37548	0.29598
2339.44684	0.28892
2337.51819	0.28453
2335.58955	0.28335
2333.66090	0.28477
2331.73226	0.28762
2329.80361	0.29081
2327.87496	0.29385
2325.94632	0.29696
2324.01767	0.30058
2322.08903	0.30453
2320.16038	0.30766
2318.23174	0.30848
2316.30309	0.30624
2314.37445	0.30143
2312.44580	0.29538
2310.51716	0.28956
2308.58851	0.28479
2306.65987	0.28090
2304.73122	0.27711
2302.80257	0.27305
2300.87393	0.26934
2298.94528	0.26723
2297.01664	0.26767
2295.08799	0.27057
2293.15935	0.27476
2291.23070	0.27842
2289.30206	0.27999
2287.37341	0.27904
2285.44477	0.27636
2283.51612	0.27334
2281.58748	0.27124
2279.65883	0.27080
2277.73018	0.27229
2275.80154	0.27565
2273.87289	0.28056
2271.94425	0.28642
2270.01560	0.29211
2268.08696	0.29599
2266.15831	0.29626
2264.22967	0.29184
2262.30102	0.28305
2260.37238	0.27155
2258.44373	0.25903
2256.51509	0.24644
2254.58644	0.23434
2252.65779	0.22294
2250.72915	0.21233
2248.80050	0.20358
2246.87186	0.19923
2244.94321	0.20175
2243.01457	0.21083
2241.08592	0.22361
2239.15728	0.23642
2237.22863	0.24534
2235.29999	0.24745
2233.37134	0.24290
2231.44270	0.23525
2229.51405	0.22902
2227.58541	0.22716
2225.65676	0.23050
2223.72811	0.23772
2221.79947	0.24535
2219.87082	0.24990
2217.94218	0.25028
2216.01353	0.24779
2214.08489	0.24417
2212.15624	0.24043
2210.22760	0.23701
2208.29895	0.23364
2206.37031	0.22911
2204.44166	0.22246
2202.51302	0.21460
2200.58437	0.20744
2198.65572	0.20187
2196.72708	0.19835
2194.79843	0.19900
2192.86979	0.20639
2190.94114	0.21943
2189.01250	0.23193
2187.08385	0.23654
2185.15521	0.22880
2183.22656	0.20801
2181.29792	0.17810
2179.36927	0.14891
2177.44063	0.13213
2175.51198	0.13283
2173.58333	0.14565
2171.65469	0.16046
2169.72604	0.16909
2167.79740	0.16519
2165.86875	0.14419
2163.94011	0.10796
2162.01146	0.06581
2160.08282	0.02881
2158.15417	0.00495
2156.22553	0.00000
2154.29688	0.01771
2152.36824	0.05469
2150.43959	0.09911
2148.51094	0.13746
2146.58230	0.16084
2144.65365	0.16661
2142.72501	0.15851
2140.79636	0.14620
2138.86772	0.14123
2136.93907	0.14984
2135.01043	0.16926
2133.08178	0.19081
2131.15314	0.20555
2129.22449	0.20857
2127.29585	0.20062
2125.36720	0.18734
2123.43856	0.17620
2121.50991	0.17207
2119.58126	0.17479
2117.65262	0.18067
2115.72397	0.18592
2113.79533	0.18844
2111.86668	0.18751
2109.93804	0.18387
2108.00939	0.17988
2106.08075	0.17825
2104.15210	0.18051
2102.22346	0.18682
2100.29481	0.19655
2098.36617	0.20830
2096.43752	0.21985
2094.50887	0.22913
2092.58023	0.23520
2090.65158	0.23799
2088.72294	0.23772
2086.79429	0.23448
2084.86565	0.22840
2082.93700	0.21990
2081.00836	0.21015
2079.07971	0.20111
2077.15107	0.19495
2075.22242	0.19306
2073.29378	0.19509
2071.36513	0.19895
2069.43648	0.20171
2067.50784	0.20098
2065.57919	0.19627
2063.65055	0.18904
2061.72190	0.18134
2059.79326	0.17350
2057.86461	0.16307
2055.93597	0.14619
2054.00732	0.12085
2052.07868	0.08978
2050.15003	0.06087
2048.22139	0.04437
2046.29274	0.04768
2044.36409	0.07051
2042.43545	0.10410
2040.50680	0.13559
2038.57816	0.15493
2036.64951	0.15963
2034.72087	0.15508
2032.79222	0.15081
2030.86358	0.15453
2028.93493	0.16759
2027.00629	0.18484
2025.07764	0.19828
2023.14900	0.20148
2021.22035	0.19222
2019.29170	0.17283
2017.36306	0.14873
2015.43441	0.12595
2013.50577	0.10913
2011.57712	0.10093
2009.64848	0.10209
2007.71983	0.11140
2005.79119	0.12591
2003.86254	0.14184
2001.93390	0.15585
2000.00525	0.16574
1998.07661	0.17035
1996.14796	0.16955
1994.21932	0.16439
1992.29067	0.15680
1990.36202	0.14845
1988.43338	0.13993
1986.50473	0.13075
1984.57609	0.11971
1982.64744	0.10488
1980.71880	0.08739
1978.79015	0.07122
1976.86151	0.06312
1974.93286	0.06957
1973.00422	0.09327
1971.07557	0.13146
1969.14693	0.17648
1967.21828	0.21849
1965.28963	0.24942
1963.36099	0.26634
1961.43234	0.27213
1959.50370	0.27303
1957.57505	0.27487
1955.64641	0.28005
1953.71776	0.28697
1951.78912	0.29137
1949.86047	0.28890
1947.93183	0.27745
1946.00318	0.25826
1944.07454	0.23537
1942.14589	0.21391
1940.21724	0.19839
1938.28860	0.19167
1936.35995	0.19443
1934.43131	0.20505
1932.50266	0.21988
1930.57402	0.23431
1928.64537	0.24435
1926.71673	0.24798
1924.78808	0.24572
1922.85944	0.23998
1920.93079	0.23364
1919.00215	0.22871
1917.07350	0.22563
1915.14485	0.22363
1913.21621	0.22182
1911.28756	0.22009
1909.35892	0.21916
1907.43027	0.22007
1905.50163	0.22333
1903.57298	0.22869
1901.64434	0.23522
1899.71569	0.24173
1897.78705	0.24706
1895.85840	0.25039
1893.92976	0.25145
1892.00111	0.25036
1890.07246	0.24749
1888.14382	0.24332
1886.21517	0.23831
1884.28653	0.23290
1882.35788	0.22738
1880.42924	0.22213
1878.50059	0.21772
1876.57195	0.21490
1874.64330	0.21426
1872.71466	0.21592
1870.78601	0.21942
1868.85737	0.22390
1866.92872	0.22829
1865.00008	0.23158
1863.07143	0.23313
1861.14278	0.23293
1859.21414	0.23158
1857.28549	0.23002
1855.35685	0.22922
1853.42820	0.22977
1851.49956	0.23161
1849.57091	0.23407
1847.64227	0.23627
1845.71362	0.23762
1843.78498	0.23806
1841.85633	0.23798
1839.92769	0.23789
1837.99904	0.23814
1836.07039	0.23881
1834.14175	0.23966
1832.21310	0.24034
1830.28446	0.24060
1828.35581	0.24032
1826.42717	0.23954
1824.49852	0.23830
1822.56988	0.23665
1820.64123	0.23467
1818.71259	0.23245
1816.78394	0.23021
1814.85530	0.22817
1812.92665	0.22660
1810.99800	0.22561
1809.06936	0.22511
1807.14071	0.22481
1805.21207	0.22441
1803.28342	0.22386
1801.35478	0.22336
1799.42613	0.22333
1797.49749	0.22415
1795.56884	0.22585
1793.64020	0.22803
1791.71155	0.22995
1789.78291	0.23088
1787.85426	0.23053
1785.92561	0.22925
1783.99697	0.22795
1782.06832	0.22774
1780.13968	0.22943
1778.21103	0.23310
1776.28239	0.23809
1774.35374	0.24325
1772.42510	0.24753
1770.49645	0.25041
1768.56781	0.25206
1766.63916	0.25308
1764.71052	0.25416
1762.78187	0.25584
1760.85322	0.25842
1758.92458	0.26203
1756.99593	0.26675
1755.06729	0.27260
1753.13864	0.27941
1751.21000	0.28669
1749.28135	0.29387
1747.35271	0.30071
1745.42406	0.30763
1743.49542	0.31546
1741.56677	0.32486
1739.63813	0.33576
1737.70948	0.34708
1735.78084	0.35690
1733.85219	0.36327
1731.92354	0.36533
1729.99490	0.36393
1728.06625	0.36139
1726.13761	0.36039
1724.20896	0.36271
1722.28032	0.36852
1720.35167	0.37633
1718.42303	0.38376
1716.49438	0.38879
1714.56574	0.39094
1712.63709	0.39157
1710.70845	0.39318
1708.77980	0.39822
1706.85115	0.40801
1704.92251	0.42217
1702.99386	0.43880
1701.06522	0.45536
1699.13657	0.46988
1697.20793	0.48194
1695.27928	0.49272
1693.35064	0.50424
1691.42199	0.51822
1689.49335	0.53521
1687.56470	0.55447
1685.63606	0.57441
1683.70741	0.59361
1681.77876	0.61164
1679.85012	0.62917
1677.92147	0.64724
1675.99283	0.66641
1674.06418	0.68634
1672.13554	0.70601
1670.20689	0.72424
1668.27825	0.74043
1666.34960	0.75510
1664.42096	0.76988
1662.49231	0.78654
1660.56367	0.80601
1658.63502	0.82785
1656.70637	0.85021
1654.77773	0.87020
1652.84908	0.88486
1650.92044	0.89250
1648.99179	0.89340
1647.06315	0.88953
1645.13450	0.88360
1643.20586	0.87802
1641.27721	0.87415
1639.34857	0.87192
1637.41992	0.87012
1635.49128	0.86728
1633.56263	0.86240
1631.63399	0.85526
1629.70534	0.84630
1627.77669	0.83637
1625.84805	0.82636
1623.91940	0.81693
1621.99076	0.80837
1620.06211	0.80062
1618.13347	0.79339
1616.20482	0.78633
1614.27618	0.77927
1612.34753	0.77233
1610.41889	0.76585
1608.49024	0.76018
1606.56160	0.75552
1604.63295	0.75173
1602.70430	0.74835
1600.77566	0.74466
1598.84701	0.74005
1596.91837	0.73419
1594.98972	0.72703
1593.06108	0.71880
1591.13243	0.70989
1589.20379	0.70095
1587.27514	0.69280
1585.34650	0.68623
1583.41785	0.68174
1581.48921	0.67935
1579.56056	0.67849
1577.63191	0.67797
1575.70327	0.67643
1573.77462	0.67307
1571.84598	0.66826
1569.91733	0.66341
1567.98869	0.66033
1566.06004	0.66023
1564.13140	0.66298
1562.20275	0.66680
1560.27411	0.66880
1558.34546	0.66628
1556.41682	0.65820
1554.48817	0.64571
1552.55952	0.63167
1550.63088	0.61937
1548.70223	0.61111
1546.77359	0.60721
1544.84494	0.60590
1542.91630	0.60408
1540.98765	0.59881
1539.05901	0.58852
1537.13036	0.57372
1535.20172	0.55667
1533.27307	0.54037
1531.34443	0.52749
1529.41578	0.51934
1527.48713	0.51550
1525.55849	0.51404
1523.62984	0.51236
1521.70120	0.50826
1519.77255	0.50084
1517.84391	0.49067
1515.91526	0.47920
1513.98662	0.46784
1512.05797	0.45720
1510.12933	0.44689
1508.20068	0.43597
1506.27204	0.42364
1504.34339	0.41004
1502.41475	0.39629
1500.48610	0.38379
1498.55745	0.37340
1496.62881	0.36503
1494.70016	0.35786
1492.77152	0.35086
1490.84287	0.34335
1488.91423	0.33535
1486.98558	0.32784
1485.05694	0.32245
1483.12829	0.32101
1481.19965	0.32495
1479.27100	0.33488
1477.34236	0.35022
1475.41371	0.36913
1473.48506	0.38878
1471.55642	0.40628
1469.62777	0.41966
1467.69913	0.42839
1465.77048	0.43318
1463.84184	0.43538
1461.91319	0.43628
1459.98455	0.43644
1458.05590	0.43550
1456.12726	0.43262
1454.19861	0.42717
1452.26997	0.41924
1450.34132	0.40966
1448.41267	0.39976
1446.48403	0.39105
1444.55538	0.38478
1442.62674	0.38154
1440.69809	0.38110
1438.76945	0.38265
1436.84080	0.38519
1434.91216	0.38800
1432.98351	0.39102
1431.05487	0.39493
1429.12622	0.40074
1427.19758	0.40914
1425.26893	0.42004
1423.34028	0.43247
1421.41164	0.44493
1419.48299	0.45594
1417.55435	0.46461
1415.62570	0.47088
1413.69706	0.47539
1411.76841	0.47905
1409.83977	0.48263
1407.91112	0.48653
1405.98248	0.49064
1404.05383	0.49444
1402.12519	0.49725
1400.19654	0.49851
1398.26789	0.49799
1396.33925	0.49584
1394.41060	0.49245
1392.48196	0.48836
1390.55331	0.48409
1388.62467	0.47996
1386.69602	0.47612
1384.76738	0.47253
1382.83873	0.46896
1380.91009	0.46503
1378.98144	0.46030
1377.05280	0.45438
1375.12415	0.44715
1373.19551	0.43870
1371.26686	0.42937
1369.33821	0.41966
1367.40957	0.41007
1365.48092	0.40099
1363.55228	0.39260
1361.62363	0.38492
1359.69499	0.37781
1357.76634	0.37106
1355.83770	0.36459
1353.90905	0.35848
1351.98041	0.35301
1350.05176	0.34854
1348.12312	0.34524
1346.19447	0.34301
1344.26582	0.34147
1342.33718	0.34015
1340.40853	0.33869
1338.47989	0.33694
1336.55124	0.33496
1334.62260	0.33293
1332.69395	0.33110
1330.76531	0.32976
1328.83666	0.32923
1326.90802	0.32978
1324.97937	0.33144
1323.05073	0.33397
1321.12208	0.33676
1319.19343	0.33910
1317.26479	0.34047
1315.33614	0.34071
1313.40750	0.34002
1311.47885	0.33879
1309.55021	0.33740
1307.62156	0.33612
1305.69292	0.33509
1303.76427	0.33442
1301.83563	0.33427
1299.90698	0.33484
1297.97834	0.33621
1296.04969	0.33831
1294.12104	0.34096
1292.19240	0.34390
1290.26375	0.34683
1288.33511	0.34951
1286.40646	0.35177
1284.47782	0.35357
1282.54917	0.35502
1280.62053	0.35646
1278.69188	0.35839
1276.76324	0.36133
1274.83459	0.36559
1272.90595	0.37117
1270.97730	0.37769
1269.04866	0.38448
1267.12001	0.39084
1265.19136	0.39622
1263.26272	0.40034
1261.33407	0.40320
1259.40543	0.40503
1257.47678	0.40624
1255.54814	0.40730
1253.61949	0.40862
1251.69085	0.41055
1249.76220	0.41333
1247.83356	0.41703
1245.90491	0.42155
1243.97627	0.42669
1242.04762	0.43210
1240.11897	0.43740
1238.19033	0.44219
1236.26168	0.44619
1234.33304	0.44936
1232.40439	0.45191
1230.47575	0.45428
1228.54710	0.45691
1226.61846	0.46011
1224.68981	0.46388
1222.76117	0.46801
1220.83252	0.47218
1218.90388	0.47616
1216.97523	0.47984
1215.04658	0.48337
1213.11794	0.48703
1211.18929	0.49111
1209.26065	0.49575
1207.33200	0.50096
1205.40336	0.50657
1203.47471	0.51228
1201.54607	0.51780
1199.61742	0.52302
1197.68878	0.52812
1195.76013	0.53356
1193.83149	0.53986
1191.90284	0.54754
1189.97419	0.55705
1188.04555	0.56868
1186.11690	0.58252
1184.18826	0.59844
1182.25961	0.61614
1180.33097	0.63521
1178.40232	0.65501
1176.47368	0.67500
1174.54503	0.69509
1172.61639	0.71559
1170.68774	0.73682
1168.75910	0.75884
1166.83045	0.78132
1164.90180	0.80342
1162.97316	0.82412
1161.04451	0.84283
1159.11587	0.85984
1157.18722	0.87623
1155.25858	0.89340
1153.32993	0.91245
1151.40129	0.93374
1149.47264	0.95683
1147.54400	0.98084
1145.61535	1.00512
1143.68671	1.02972
1141.75806	1.05533
1139.82942	1.08279
1137.90077	1.11260
1135.97212	1.14464
1134.04348	1.17827
1132.11483	1.21263
1130.18619	1.24708
1128.25754	1.28150
1126.32890	1.31607
1124.40025	1.35081
1122.47161	1.38555
1120.54296	1.41989
1118.61432	1.45337
1116.68567	1.48559
1114.75703	1.51654
1112.82838	1.54658
1110.89973	1.57620
1108.97109	1.60588
1107.04244	1.63602
1105.11380	1.66677
1103.18515	1.69811
1101.25651	1.73015
1099.32786	1.76300
1097.39922	1.79652
1095.47057	1.83027
1093.54193	1.86362
1091.61328	1.89556
1089.68464	1.92481
1087.75599	1.95021
1085.82734	1.97091
1083.89870	1.98622
1081.97005	1.99579
1080.04141	2.00000
1078.11276	1.99980
1076.18412	1.99629
1074.25547	1.99057
1072.32683	1.98358
1070.39818	1.97559
1068.46954	1.96600
1066.54089	1.95400
1064.61225	1.93898
1062.68360	1.92058
1060.75495	1.89873
1058.82631	1.87429
1056.89766	1.84917
1054.96902	1.82564
1053.04037	1.80559
1051.11173	1.79024
1049.18308	1.77991
1047.25444	1.77392
1045.32579	1.77100
1043.39715	1.77031
1041.46850	1.77179
1039.53986	1.77569
1037.61121	1.78176
1035.68256	1.78891
1033.75392	1.79514
1031.82527	1.79784
1029.89663	1.79466
1027.96798	1.78439
1026.03934	1.76744
1024.11069	1.74568
1022.18205	1.72175
1020.25340	1.69820
1018.32476	1.67654
1016.39611	1.65708
1014.46747	1.63918
1012.53882	1.62161
1010.61018	1.60295
1008.68153	1.58228
1006.75288	1.55954
1004.82424	1.53521
1002.89559	1.50984
1000.96695	1.48409
999.03830	1.45882
997.10966	1.43456
995.18101	1.41096
993.25237	1.38715
991.32372	1.36238
989.39508	1.33626
987.46643	1.30842
985.53779	1.27853
983.60914	1.24630
981.68049	1.21107
979.75185	1.17172
977.82320	1.12742
975.89456	1.07857
973.96591	1.02708
972.03727	0.97564
970.10862	0.92680
968.17998	0.88234
966.25133	0.84296
964.32269	0.80823
962.39404	0.77681
960.46540	0.74721
958.53675	0.71838
956.60810	0.68992
954.67946	0.66210
952.75081	0.63567
950.82217	0.61157
948.89352	0.59057
946.96488	0.57314
945.03623	0.55945
943.10759	0.54921
941.17894	0.54174
939.25030	0.53613
937.32165	0.53141
935.39301	0.52674
933.46436	0.52199
931.53571	0.51775
929.60707	0.51467
927.67842	0.51264
925.74978	0.51093
923.82113	0.50869
921.89249	0.50546
919.96384	0.50115
918.03520	0.49599
916.10655	0.49011
914.17791	0.48321
912.24926	0.47459
910.32062	0.46396
908.39197	0.45215
906.46333	0.44092
904.53468	0.43177
902.60603	0.42504
900.67739	0.41953
898.74874	0.41310
896.82010	0.40414
894.89145	0.39279
892.96281	0.38104
891.03416	0.37167
889.10552	0.36698
887.17687	0.36765
885.24823	0.37200
883.31958	0.37693
881.39094	0.37996
879.46229	0.38025
877.53364	0.37795
875.60500	0.37351
873.67635	0.36778
871.74771	0.36164
869.81906	0.35539
867.89042	0.34897
865.96177	0.34254
864.03313	0.33646
862.10448	0.33074
860.17584	0.32496
858.24719	0.31891
856.31855	0.31279
854.38990	0.30732
852.46125	0.30344
850.53261	0.30172
848.60396	0.30209
846.67532	0.30399
844.74667	0.30632
842.81803	0.30771
840.88938	0.30730
838.96074	0.30557
837.03209	0.30390
835.10345	0.30340
833.17480	0.30450
831.24616	0.30702
829.31751	0.30999
827.38886	0.31182
825.46022	0.31125
823.53157	0.30825
821.60293	0.30406
819.67428	0.30062
817.74564	0.30002
815.81699	0.30387
813.88835	0.31273
811.95970	0.32623
810.03106	0.34362
808.10241	0.36419
806.17377	0.38692
804.24512	0.40991
802.31647	0.43002
800.38783	0.44344
798.45918	0.44723
796.53054	0.44089
794.60189	0.42689
792.67325	0.40995
790.74460	0.39534
788.81596	0.38688
786.88731	0.38542
784.95867	0.38915
783.03002	0.39514
781.10138	0.40046
779.17273	0.40247
777.24409	0.39942
775.31544	0.39113
773.38679	0.37863
771.45815	0.36343
769.52950	0.34754
767.60086	0.33350
765.67221	0.32359
763.74357	0.31873
761.81492	0.31841
759.88628	0.32129
757.95763	0.32554
756.02899	0.32921
754.10034	0.33108
752.17170	0.33089
750.24305	0.32883
748.31440	0.32533
746.38576	0.32121
744.45711	0.31770
742.52847	0.31586
740.59982	0.31615
738.67118	0.31843
736.74253	0.32175
734.81389	0.32446
732.88524	0.32514
730.95660	0.32367
729.02795	0.32138
727.09931	0.32017
725.17066	0.32116
723.24201	0.32427
721.31337	0.32839
719.38472	0.33191
717.45608	0.33356
715.52743	0.33319
713.59879	0.33193
711.67014	0.33136
709.74150	0.33262
707.81285	0.33602
705.88421	0.34123
703.95556	0.34743
702.02692	0.35355
700.09827	0.35861
698.16962	0.36185
696.24098	0.36282
694.31233	0.36151
692.38369	0.35828
690.45504	0.35389
688.52640	0.34917
686.59775	0.34483
684.66911	0.34127
682.74046	0.33857
680.81182	0.33667
678.88317	0.33573
676.95453	0.33604
675.02588	0.33783
673.09723	0.34103
671.16859	0.34516
669.23994	0.34934
667.31130	0.35263
665.38265	0.35459
663.45401	0.35548
661.52536	0.35585
659.59672	0.35621
657.66807	0.35678
655.73943	0.35736
653.81078	0.35753
651.88214	0.35693
649.95349	0.35565
648.02485	0.35435
646.09620	0.35404
644.16755	0.35569
642.23891	0.35972
640.31026	0.36537
638.38162	0.37045
636.45297	0.37208
634.52433	0.36876
632.59568	0.36266
630.66704	0.36066
628.73839	0.37178
626.80975	0.40142
624.88110	0.44663
622.95246	0.49590
621.02381	0.53349
619.09516	0.54619
617.16652	0.53029
615.23787	0.49436
613.30923	0.45468
611.38058	0.42591
609.45194	0.41505
607.52329	0.42152
605.59465	0.44007
603.66600	0.46374
601.73736	0.48696
599.80871	0.50694
597.88007	0.52235
595.95142	0.53156
594.02277	0.53336
592.09413	0.52860
590.16548	0.52030
588.23684	0.51223
586.30819	0.50744
584.37955	0.50747
582.45090	0.51226
580.52226	0.52111
578.59361	0.53372
576.66497	0.55011
574.73632	0.56981
572.80768	0.59122
570.87903	0.61175
568.95038	0.62856
567.02174	0.63994
565.09309	0.64651
563.16445	0.65148
561.23580	0.65944
559.30716	0.67435
557.37851	0.69791
555.44987	0.72874
553.52122	0.76301
551.59258	0.79591
549.66393	0.82362
547.73529	0.84472
545.80664	0.86032
543.87800	0.87324
541.94935	0.88646
540.02070	0.90166
538.09206	0.91853
536.16341	0.93520
534.23477	0.94927
532.30612	0.95863
530.37748	0.96205
528.44883	0.95941
526.52019	0.95159
524.59154	0.93986
522.66290	0.92533
520.73425	0.90855
518.80561	0.88952
516.87696	0.86800
514.94831	0.84394
513.01967	0.81798
511.09102	0.79163
509.16238	0.76682
507.23373	0.74485
505.30509	0.72579
503.37644	0.70904
501.44780	0.69466
499.51915	0.68413
497.59051	0.68019
495.66186	0.68622
493.73322	0.70497
491.80457	0.73720
489.87592	0.78128
487.94728	0.83391
486.01863	0.89130
484.08999	0.94968
482.16134	1.00561
480.23270	1.05618
478.30405	1.09920
476.37541	1.13316
474.44676	1.15700
472.51812	1.17002
470.58947	1.17157
468.66083	1.16109
466.73218	1.13843
464.80353	1.10437
462.87489	1.06073
460.94624	1.01010
459.01760	0.95558
457.08895	0.90042
455.16031	0.84766
453.23166	0.79970
451.30302	0.75814
449.37437	0.72355
447.44573	0.69541
445.51708	0.67232
443.58844	0.65267
441.65979	0.63550
439.73114	0.62072
437.80250	0.60875
435.87385	0.59991
433.94521	0.59415
432.01656	0.59104
430.08792	0.58983
428.15927	0.58941
426.23063	0.58850
424.30198	0.58571
422.37334	0.57957
420.44469	0.56876
418.51605	0.55266
416.58740	0.53177
414.65876	0.50759
412.73011	0.48241
410.80146	0.45903
408.87282	0.44045
406.94417	0.42905
405.01553	0.42556
403.08688	0.42827
401.15824	0.43310
399.22959	0.43468
397.30095	0.42841
395.37230	0.41234
393.44366	0.38800
391.51501	0.35961
389.58637	0.33238
387.65772	0.31070
385.72907	0.29721
383.80043	0.29256
381.87178	0.29556
379.94314	0.30338
378.01449	0.31176
376.08585	0.31591
374.15720	0.31188
372.22856	0.29814
370.29991	0.27632
368.37127	0.25061
366.44262	0.22622
364.51398	0.20735
362.58533	0.19576
360.65668	0.19045
358.72804	0.18873
356.79939	0.18755
354.87075	0.18456
352.94210	0.17874
351.01346	0.17047
349.08481	0.16107
347.15617	0.15193
345.22752	0.14382
343.29888	0.13668
341.37023	0.13029
339.44159	0.12510
337.51294	0.12262
335.58429	0.12484
333.65565	0.13314
331.72700	0.14701
329.79836	0.16338
327.86971	0.17715
325.94107	0.18310
324.01242	0.17803
322.08378	0.16202
320.15513	0.13821
318.22649	0.11185
316.29784	0.08883
314.36920	0.07404
312.44055	0.06985
310.51190	0.07541
308.58326	0.08717
306.65461	0.10021
304.72597	0.11010
302.79732	0.11340
300.86868	0.10995
298.94003	0.10216
297.01139	0.09326
295.08274	0.08570
293.15410	0.08072
291.22545	0.07908
289.29681	0.08128
287.36816	0.08737
285.43952	0.09656
283.51087	0.10687
281.58222	0.11502
279.65358	0.11751
277.72493	0.11268
275.79629	0.10221
273.86764	0.09010
271.93900	0.07995
270.01035	0.07289
268.08171	0.06753
266.15306	0.06160
264.22442	0.05418
262.29577	0.04709
260.36713	0.04453
258.43848	0.05082
256.50983	0.06759
254.58119	0.09265
252.65254	0.12108
250.72390	0.14747
248.79525	0.16732
246.86661	0.17746
244.93796	0.17609
243.00932	0.16305
241.08067	0.14027
239.15203	0.11216
237.22338	0.08519
235.29474	0.06631
233.36609	0.06096
231.43744	0.07129
229.50880	0.09513
227.58015	0.12657
225.65151	0.15851
223.72286	0.18551
221.79422	0.20481
219.86557	0.21605
217.93693	0.22113
216.00828	0.22381
214.07964	0.22808
212.15099	0.23609
210.22235	0.24728
208.29370	0.25819
206.36505	0.26247
204.43641	0.25251
202.50776	0.22339
200.57912	0.17726
198.65047	0.12438
196.72183	0.07972
194.79318	0.05739
192.86454	0.06569
190.93589	0.10425
189.00725	0.16424
187.07860	0.23165
185.14996	0.29209
183.22131	0.33414
181.29267	0.35097
179.36402	0.34207
177.43537	0.31475
175.50673	0.28228
173.57808	0.25869
171.64944	0.25336
169.72079	0.26804
167.79215	0.29676
165.86350	0.32918
163.93486	0.35636
162.00621	0.37676
160.07757	0.39006
158.14892	0.39852
156.22028	0.40435
154.29163	0.40435
152.36298	0.40435
150.43434	0.40435
148.50569	0.40435
