4497.60101	0.52348
4495.67236	0.52348
4493.74372	0.52348
4491.81507	0.52348
4489.88643	0.52348
4487.95778	0.52351
4486.02914	0.52352
4484.10049	0.52354
4482.17185	0.52355
4480.24320	0.52354
4478.31455	0.52359
4476.38591	0.52368
4474.45726	0.52371
4472.52862	0.52367
4470.59997	0.52360
4468.67133	0.52353
4466.74268	0.52345
4464.81404	0.52338
4462.88539	0.52334
4460.95675	0.52333
4459.02810	0.52332
4457.09946	0.52331
4455.17081	0.52332
4453.24216	0.52339
4451.31352	0.52354
4449.38487	0.52374
4447.45623	0.52391
4445.52758	0.52394
4443.59894	0.52375
4441.67029	0.52330
4439.74165	0.52267
4437.81300	0.52205
4435.88436	0.52169
4433.95571	0.52169
4432.02707	0.52202
4430.09842	0.52256
4428.16978	0.52316
4426.24113	0.52366
4424.31248	0.52396
4422.38384	0.52403
4420.45519	0.52395
4418.52655	0.52377
4416.59790	0.52355
4414.66926	0.52340
4412.74061	0.52345
4410.81197	0.52373
4408.88332	0.52408
4406.95468	0.52427
4405.02603	0.52415
4403.09739	0.52367
4401.16874	0.52292
4399.24009	0.52213
4397.31145	0.52159
4395.38280	0.52146
4393.45416	0.52167
4391.52551	0.52208
4389.59687	0.52257
4387.66822	0.52306
4385.73958	0.52347
4383.81093	0.52372
4381.88229	0.52380
4379.95364	0.52374
4378.02500	0.52355
4376.09635	0.52330
4374.16770	0.52313
4372.23906	0.52317
4370.31041	0.52339
4368.38177	0.52375
4366.45312	0.52421
4364.52448	0.52475
4362.59583	0.52529
4360.66719	0.52575
4358.73854	0.52606
4356.80990	0.52615
4354.88125	0.52598
4352.95261	0.52558
4351.02396	0.52510
4349.09531	0.52471
4347.16667	0.52449
4345.23802	0.52443
4343.30938	0.52447
4341.38073	0.52452
4339.45209	0.52453
4337.52344	0.52448
4335.59480	0.52435
4333.66615	0.52417
4331.73751	0.52394
4329.80886	0.52364
4327.88022	0.52332
4325.95157	0.52307
4324.02292	0.52299
4322.09428	0.52313
4320.16563	0.52344
4318.23699	0.52380
4316.30834	0.52410
4314.37970	0.52425
4312.45105	0.52431
4310.52241	0.52443
4308.59376	0.52471
4306.66512	0.52514
4304.73647	0.52562
4302.80783	0.52598
4300.87918	0.52606
4298.95054	0.52578
4297.02189	0.52522
4295.09324	0.52458
4293.16460	0.52403
4291.23595	0.52370
4289.30731	0.52367
4287.37866	0.52391
4285.45002	0.52431
4283.52137	0.52473
4281.59273	0.52501
4279.66408	0.52509
4277.73544	0.52498
4275.80679	0.52478
4273.87815	0.52461
4271.94950	0.52451
4270.02085	0.52449
4268.09221	0.52447
4266.16356	0.52443
4264.23492	0.52438
4262.30627	0.52441
4260.37763	0.52460
4258.44898	0.52495
4256.52034	0.52531
4254.59169	0.52554
4252.66305	0.52549
4250.73440	0.52519
4248.80576	0.52479
4246.87711	0.52447
4244.94846	0.52440
4243.01982	0.52463
4241.09117	0.52510
4239.16253	0.52565
4237.23388	0.52611
4235.30524	0.52634
4233.37659	0.52633
4231.44795	0.52614
4229.51930	0.52589
4227.59066	0.52572
4225.66201	0.52569
4223.73337	0.52578
4221.80472	0.52590
4219.87607	0.52595
4217.94743	0.52588
4216.01878	0.52575
4214.09014	0.52570
4212.16149	0.52583
4210.23285	0.52614
4208.30420	0.52651
4206.37556	0.52678
4204.44691	0.52683
4202.51827	0.52664
4200.58962	0.52636
4198.66098	0.52617
4196.73233	0.52620
4194.80368	0.52641
4192.87504	0.52668
4190.94639	0.52692
4189.01775	0.52701
4187.08910	0.52696
4185.16046	0.52682
4183.23181	0.52669
4181.30317	0.52659
4179.37452	0.52651
4177.44588	0.52644
4175.51723	0.52636
4173.58859	0.52626
4171.65994	0.52614
4169.73130	0.52605
4167.80265	0.52603
4165.87400	0.52615
4163.94536	0.52640
4162.01671	0.52675
4160.08807	0.52711
4158.15942	0.52736
4156.23078	0.52737
4154.30213	0.52713
4152.37349	0.52667
4150.44484	0.52615
4148.51620	0.52572
4146.58755	0.52553
4144.65891	0.52559
4142.73026	0.52587
4140.80161	0.52630
4138.87297	0.52677
4136.94432	0.52719
4135.01568	0.52754
4133.08703	0.52784
4131.15839	0.52808
4129.22974	0.52823
4127.30110	0.52830
4125.37245	0.52833
4123.44381	0.52831
4121.51516	0.52825
4119.58652	0.52819
4117.65787	0.52815
4115.72922	0.52813
4113.80058	0.52809
4111.87193	0.52804
4109.94329	0.52805
4108.01464	0.52816
4106.08600	0.52838
4104.15735	0.52867
4102.22871	0.52894
4100.30006	0.52907
4098.37142	0.52901
4096.44277	0.52877
4094.51413	0.52844
4092.58548	0.52817
4090.65683	0.52807
4088.72819	0.52814
4086.79954	0.52835
4084.87090	0.52869
4082.94225	0.52915
4081.01361	0.52968
4079.08496	0.53020
4077.15632	0.53061
4075.22767	0.53078
4073.29903	0.53067
4071.37038	0.53029
4069.44174	0.52980
4067.51309	0.52937
4065.58444	0.52913
4063.65580	0.52910
4061.72715	0.52923
4059.79851	0.52941
4057.86986	0.52956
4055.94122	0.52966
4054.01257	0.52974
4052.08393	0.52986
4050.15528	0.53003
4048.22664	0.53027
4046.29799	0.53052
4044.36935	0.53073
4042.44070	0.53086
4040.51206	0.53090
4038.58341	0.53088
4036.65476	0.53083
4034.72612	0.53081
4032.79747	0.53083
4030.86883	0.53089
4028.94018	0.53097
4027.01154	0.53104
4025.08289	0.53111
4023.15425	0.53119
4021.22560	0.53135
4019.29696	0.53161
4017.36831	0.53198
4015.43967	0.53239
4013.51102	0.53275
4011.58237	0.53300
4009.65373	0.53311
4007.72508	0.53308
4005.79644	0.53298
4003.86779	0.53286
4001.93915	0.53275
4000.01050	0.53263
3998.08186	0.53251
3996.15321	0.53239
3994.22457	0.53233
3992.29592	0.53235
3990.36728	0.53242
3988.43863	0.53250
3986.50998	0.53253
3984.58134	0.53245
3982.65269	0.53228
3980.72405	0.53209
3978.79540	0.53197
3976.86676	0.53197
3974.93811	0.53205
3973.00947	0.53215
3971.08082	0.53218
3969.15218	0.53211
3967.22353	0.53199
3965.29489	0.53192
3963.36624	0.53198
3961.43759	0.53221
3959.50895	0.53255
3957.58030	0.53288
3955.65166	0.53309
3953.72301	0.53312
3951.79437	0.53298
3949.86572	0.53274
3947.93708	0.53250
3946.00843	0.53232
3944.07979	0.53223
3942.15114	0.53225
3940.22250	0.53234
3938.29385	0.53244
3936.36521	0.53250
3934.43656	0.53246
3932.50791	0.53226
3930.57927	0.53190
3928.65062	0.53146
3926.72198	0.53105
3924.79333	0.53078
3922.86469	0.53070
3920.93604	0.53082
3919.00740	0.53104
3917.07875	0.53128
3915.15011	0.53147
3913.22146	0.53164
3911.29282	0.53182
3909.36417	0.53204
3907.43552	0.53231
3905.50688	0.53255
3903.57823	0.53269
3901.64959	0.53267
3899.72094	0.53254
3897.79230	0.53235
3895.86365	0.53221
3893.93501	0.53214
3892.00636	0.53216
3890.07772	0.53224
3888.14907	0.53234
3886.22043	0.53245
3884.29178	0.53259
3882.36313	0.53276
3880.43449	0.53293
3878.50584	0.53307
3876.57720	0.53311
3874.64855	0.53307
3872.71991	0.53294
3870.79126	0.53276
3868.86262	0.53255
3866.93397	0.53237
3865.00533	0.53229
3863.07668	0.53240
3861.14804	0.53275
3859.21939	0.53333
3857.29074	0.53401
3855.36210	0.53457
3853.43345	0.53481
3851.50481	0.53465
3849.57616	0.53417
3847.64752	0.53356
3845.71887	0.53305
3843.79023	0.53275
3841.86158	0.53267
3839.93294	0.53269
3838.00429	0.53271
3836.07565	0.53266
3834.14700	0.53255
3832.21835	0.53248
3830.28971	0.53250
3828.36106	0.53267
3826.43242	0.53297
3824.50377	0.53336
3822.57513	0.53376
3820.64648	0.53407
3818.71784	0.53426
3816.78919	0.53433
3814.86055	0.53430
3812.93190	0.53427
3811.00326	0.53430
3809.07461	0.53442
3807.14597	0.53458
3805.21732	0.53468
3803.28867	0.53466
3801.36003	0.53448
3799.43138	0.53415
3797.50274	0.53374
3795.57409	0.53334
3793.64545	0.53303
3791.71680	0.53289
3789.78816	0.53295
3787.85951	0.53324
3785.93087	0.53371
3784.00222	0.53428
3782.07358	0.53484
3780.14493	0.53532
3778.21628	0.53567
3776.28764	0.53590
3774.35899	0.53606
3772.43035	0.53618
3770.50170	0.53628
3768.57306	0.53634
3766.64441	0.53634
3764.71577	0.53632
3762.78712	0.53638
3760.85848	0.53663
3758.92983	0.53716
3757.00119	0.53798
3755.07254	0.53900
3753.14389	0.54008
3751.21525	0.54105
3749.28660	0.54182
3747.35796	0.54237
3745.42931	0.54278
3743.50067	0.54313
3741.57202	0.54347
3739.64338	0.54379
3737.71473	0.54404
3735.78609	0.54416
3733.85744	0.54420
3731.92880	0.54429
3730.00015	0.54459
3728.07150	0.54525
3726.14286	0.54630
3724.21421	0.54765
3722.28557	0.54914
3720.35692	0.55064
3718.42828	0.55204
3716.49963	0.55335
3714.57099	0.55464
3712.64234	0.55602
3710.71370	0.55753
3708.78505	0.55921
3706.85641	0.56109
3704.92776	0.56319
3702.99911	0.56553
3701.07047	0.56818
3699.14182	0.57120
3697.21318	0.57463
3695.28453	0.57846
3693.35589	0.58261
3691.42724	0.58698
3689.49860	0.59146
3687.56995	0.59601
3685.64131	0.60067
3683.71266	0.60557
3681.78402	0.61087
3679.85537	0.61669
3677.92673	0.62304
3675.99808	0.62984
3674.06943	0.63695
3672.14079	0.64424
3670.21214	0.65165
3668.28350	0.65921
3666.35485	0.66699
3664.42621	0.67509
3662.49756	0.68357
3660.56892	0.69243
3658.64027	0.70160
3656.71163	0.71100
3654.78298	0.72049
3652.85434	0.72997
3650.92569	0.73932
3648.99704	0.74849
3647.06840	0.75746
3645.13975	0.76630
3643.21111	0.77513
3641.28246	0.78404
3639.35382	0.79309
3637.42517	0.80230
3635.49653	0.81156
3633.56788	0.82076
3631.63924	0.82976
3629.71059	0.83852
3627.78195	0.84708
3625.85330	0.85554
3623.92465	0.86404
3621.99601	0.87270
3620.06736	0.88152
3618.13872	0.89039
3616.21007	0.89915
3614.28143	0.90763
3612.35278	0.91578
3610.42414	0.92366
3608.49549	0.93141
3606.56685	0.93925
3604.63820	0.94733
3602.70956	0.95576
3600.78091	0.96450
3598.85226	0.97348
3596.92362	0.98259
3594.99497	0.99170
3593.06633	1.00071
3591.13768	1.00956
3589.20904	1.01824
3587.28039	1.02682
3585.35175	1.03542
3583.42310	1.04415
3581.49446	1.05309
3579.56581	1.06226
3577.63717	1.07162
3575.70852	1.08111
3573.77988	1.09064
3571.85123	1.10018
3569.92258	1.10972
3567.99394	1.11928
3566.06529	1.12890
3564.13665	1.13861
3562.20800	1.14846
3560.27936	1.15844
3558.35071	1.16851
3556.42207	1.17860
3554.49342	1.18862
3552.56478	1.19851
3550.63613	1.20827
3548.70749	1.21797
3546.77884	1.22769
3544.85019	1.23758
3542.92155	1.24773
3540.99290	1.25817
3539.06426	1.26886
3537.13561	1.27969
3535.20697	1.29051
3533.27832	1.30122
3531.34968	1.31179
3529.42103	1.32225
3527.49239	1.33268
3525.56374	1.34316
3523.63510	1.35369
3521.70645	1.36426
3519.77780	1.37482
3517.84916	1.38536
3515.92051	1.39587
3513.99187	1.40636
3512.06322	1.41683
3510.13458	1.42729
3508.20593	1.43771
3506.27729	1.44809
3504.34864	1.45842
3502.42000	1.46873
3500.49135	1.47903
3498.56271	1.48934
3496.63406	1.49966
3494.70541	1.51002
3492.77677	1.52042
3490.84812	1.53083
3488.91948	1.54122
3486.99083	1.55152
3485.06219	1.56168
3483.13354	1.57168
3481.20490	1.58151
3479.27625	1.59119
3477.34761	1.60080
3475.41896	1.61042
3473.49032	1.62011
3471.56167	1.62995
3469.63302	1.63996
3467.70438	1.65014
3465.77573	1.66045
3463.84709	1.67081
3461.91844	1.68114
3459.98980	1.69135
3458.06115	1.70135
3456.13251	1.71110
3454.20386	1.72058
3452.27522	1.72981
3450.34657	1.73888
3448.41793	1.74785
3446.48928	1.75679
3444.56064	1.76575
3442.63199	1.77473
3440.70334	1.78370
3438.77470	1.79261
3436.84605	1.80144
3434.91741	1.81014
3432.98876	1.81870
3431.06012	1.82713
3429.13147	1.83549
3427.20283	1.84386
3425.27418	1.85228
3423.34554	1.86073
3421.41689	1.86913
3419.48825	1.87733
3417.55960	1.88518
3415.63095	1.89257
3413.70231	1.89948
3411.77366	1.90600
3409.84502	1.91222
3407.91637	1.91827
3405.98773	1.92420
3404.05908	1.93003
3402.13044	1.93571
3400.20179	1.94122
3398.27315	1.94651
3396.34450	1.95158
3394.41586	1.95643
3392.48721	1.96104
3390.55856	1.96539
3388.62992	1.96943
3386.70127	1.97311
3384.77263	1.97645
3382.84398	1.97945
3380.91534	1.98219
3378.98669	1.98472
3377.05805	1.98709
3375.12940	1.98932
3373.20076	1.99140
3371.27211	1.99334
3369.34347	1.99512
3367.41482	1.99674
3365.48617	1.99812
3363.55753	1.99918
3361.62888	1.99983
3359.70024	2.00000
3357.77159	1.99971
3355.84295	1.99906
3353.91430	1.99824
3351.98566	1.99741
3350.05701	1.99666
3348.12837	1.99601
3346.19972	1.99538
3344.27108	1.99465
3342.34243	1.99374
3340.41378	1.99262
3338.48514	1.99133
3336.55649	1.98991
3334.62785	1.98842
3332.69920	1.98684
3330.77056	1.98514
3328.84191	1.98329
3326.91327	1.98128
3324.98462	1.97917
3323.05598	1.97703
3321.12733	1.97495
3319.19869	1.97294
3317.27004	1.97096
3315.34140	1.96894
3313.41275	1.96682
3311.48410	1.96460
3309.55546	1.96235
3307.62681	1.96019
3305.69817	1.95822
3303.76952	1.95652
3301.84088	1.95507
3299.91223	1.95378
3297.98359	1.95255
3296.05494	1.95125
3294.12630	1.94980
3292.19765	1.94816
3290.26901	1.94633
3288.34036	1.94439
3286.41171	1.94243
3284.48307	1.94055
3282.55442	1.93879
3280.62578	1.93714
3278.69713	1.93551
3276.76849	1.93382
3274.83984	1.93199
3272.91120	1.93003
3270.98255	1.92799
3269.05391	1.92596
3267.12526	1.92396
3265.19662	1.92194
3263.26797	1.91983
3261.33932	1.91754
3259.41068	1.91503
3257.48203	1.91235
3255.55339	1.90956
3253.62474	1.90675
3251.69610	1.90393
3249.76745	1.90108
3247.83881	1.89815
3245.91016	1.89507
3243.98152	1.89183
3242.05287	1.88840
3240.12423	1.88477
3238.19558	1.88092
3236.26693	1.87681
3234.33829	1.87240
3232.40964	1.86771
3230.48100	1.86278
3228.55235	1.85766
3226.62371	1.85240
3224.69506	1.84702
3222.76642	1.84148
3220.83777	1.83572
3218.90913	1.82965
3216.98048	1.82319
3215.05184	1.81632
3213.12319	1.80906
3211.19455	1.80149
3209.26590	1.79369
3207.33725	1.78576
3205.40861	1.77775
3203.47996	1.76967
3201.55132	1.76151
3199.62267	1.75320
3197.69403	1.74468
3195.76538	1.73589
3193.83674	1.72680
3191.90809	1.71740
3189.97945	1.70771
3188.05080	1.69779
3186.12216	1.68767
3184.19351	1.67737
3182.26486	1.66689
3180.33622	1.65623
3178.40757	1.64540
3176.47893	1.63444
3174.55028	1.62341
3172.62164	1.61238
3170.69299	1.60138
3168.76435	1.59040
3166.83570	1.57937
3164.90706	1.56820
3162.97841	1.55682
3161.04977	1.54523
3159.12112	1.53347
3157.19247	1.52164
3155.26383	1.50982
3153.33518	1.49805
3151.40654	1.48631
3149.47789	1.47456
3147.54925	1.46275
3145.62060	1.45085
3143.69196	1.43890
3141.76331	1.42692
3139.83467	1.41494
3137.90602	1.40297
3135.97738	1.39101
3134.04873	1.37907
3132.12008	1.36719
3130.19144	1.35541
3128.26279	1.34380
3126.33415	1.33237
3124.40550	1.32109
3122.47686	1.30991
3120.54821	1.29877
3118.61957	1.28762
3116.69092	1.27643
3114.76228	1.26522
3112.83363	1.25403
3110.90499	1.24291
3108.97634	1.23192
3107.04769	1.22110
3105.11905	1.21046
3103.19040	1.19997
3101.26176	1.18960
3099.33311	1.17930
3097.40447	1.16905
3095.47582	1.15887
3093.54718	1.14878
3091.61853	1.13883
3089.68989	1.12903
3087.76124	1.11939
3085.83260	1.10988
3083.90395	1.10048
3081.97531	1.09114
3080.04666	1.08185
3078.11801	1.07264
3076.18937	1.06352
3074.26072	1.05454
3072.33208	1.04572
3070.40343	1.03705
3068.47479	1.02849
3066.54614	1.02000
3064.61750	1.01154
3062.68885	1.00312
3060.76021	0.99477
3058.83156	0.98655
3056.90292	0.97849
3054.97427	0.97063
3053.04562	0.96298
3051.11698	0.95553
3049.18833	0.94826
3047.25969	0.94113
3045.33104	0.93411
3043.40240	0.92715
3041.47375	0.92021
3039.54511	0.91327
3037.61646	0.90635
3035.68782	0.89948
3033.75917	0.89275
3031.83053	0.88620
3029.90188	0.87984
3027.97323	0.87365
3026.04459	0.86759
3024.11594	0.86163
3022.18730	0.85574
3020.25865	0.84992
3018.33001	0.84417
3016.40136	0.83848
3014.47272	0.83285
3012.54407	0.82729
3010.61543	0.82183
3008.68678	0.81648
3006.75814	0.81127
3004.82949	0.80619
3002.90084	0.80121
3000.97220	0.79632
2999.04355	0.79149
2997.11491	0.78676
2995.18626	0.78214
2993.25762	0.77768
2991.32897	0.77338
2989.40033	0.76922
2987.47168	0.76517
2985.54304	0.76118
2983.61439	0.75720
2981.68575	0.75322
2979.75710	0.74923
2977.82845	0.74525
2975.89981	0.74134
2973.97116	0.73756
2972.04252	0.73394
2970.11387	0.73050
2968.18523	0.72723
2966.25658	0.72404
2964.32794	0.72086
2962.39929	0.71762
2960.47065	0.71429
2958.54200	0.71091
2956.61336	0.70755
2954.68471	0.70429
2952.75607	0.70121
2950.82742	0.69830
2948.89877	0.69551
2946.97013	0.69278
2945.04148	0.69004
2943.11284	0.68729
2941.18419	0.68456
2939.25555	0.68192
2937.32690	0.67939
2935.39826	0.67699
2933.46961	0.67467
2931.54097	0.67239
2929.61232	0.67010
2927.68368	0.66774
2925.75503	0.66531
2923.82638	0.66283
2921.89774	0.66031
2919.96909	0.65775
2918.04045	0.65519
2916.11180	0.65264
2914.18316	0.65007
2912.25451	0.64749
2910.32587	0.64490
2908.39722	0.64233
2906.46858	0.63980
2904.53993	0.63729
2902.61129	0.63484
2900.68264	0.63249
2898.75399	0.63028
2896.82535	0.62822
2894.89670	0.62631
2892.96806	0.62450
2891.03941	0.62277
2889.11077	0.62106
2887.18212	0.61937
2885.25348	0.61772
2883.32483	0.61612
2881.39619	0.61454
2879.46754	0.61294
2877.53890	0.61132
2875.61025	0.60967
2873.68160	0.60804
2871.75296	0.60645
2869.82431	0.60490
2867.89567	0.60340
2865.96702	0.60193
2864.03838	0.60046
2862.10973	0.59902
2860.18109	0.59765
2858.25244	0.59638
2856.32380	0.59522
2854.39515	0.59411
2852.46651	0.59296
2850.53786	0.59170
2848.60922	0.59028
2846.68057	0.58872
2844.75192	0.58712
2842.82328	0.58557
2840.89463	0.58414
2838.96599	0.58280
2837.03734	0.58150
2835.10870	0.58018
2833.18005	0.57884
2831.25141	0.57752
2829.32276	0.57630
2827.39412	0.57523
2825.46547	0.57431
2823.53683	0.57345
2821.60818	0.57258
2819.67953	0.57164
2817.75089	0.57063
2815.82224	0.56959
2813.89360	0.56857
2811.96495	0.56762
2810.03631	0.56671
2808.10766	0.56581
2806.17902	0.56490
2804.25037	0.56401
2802.32173	0.56316
2800.39308	0.56237
2798.46444	0.56165
2796.53579	0.56095
2794.60714	0.56023
2792.67850	0.55949
2790.74985	0.55875
2788.82121	0.55804
2786.89256	0.55738
2784.96392	0.55676
2783.03527	0.55614
2781.10663	0.55550
2779.17798	0.55485
2777.24934	0.55421
2775.32069	0.55362
2773.39205	0.55310
2771.46340	0.55262
2769.53475	0.55213
2767.60611	0.55160
2765.67746	0.55101
2763.74882	0.55039
2761.82017	0.54977
2759.89153	0.54916
2757.96288	0.54857
2756.03424	0.54801
2754.10559	0.54748
2752.17695	0.54697
2750.24830	0.54648
2748.31966	0.54604
2746.39101	0.54566
2744.46236	0.54534
2742.53372	0.54508
2740.60507	0.54483
2738.67643	0.54453
2736.74778	0.54411
2734.81914	0.54355
2732.89049	0.54288
2730.96185	0.54217
2729.03320	0.54149
2727.10456	0.54090
2725.17591	0.54042
2723.24727	0.54001
2721.31862	0.53965
2719.38998	0.53931
2717.46133	0.53901
2715.53268	0.53874
2713.60404	0.53850
2711.67539	0.53824
2709.74675	0.53794
2707.81810	0.53757
2705.88946	0.53715
2703.96081	0.53675
2702.03217	0.53640
2700.10352	0.53611
2698.17488	0.53587
2696.24623	0.53563
2694.31759	0.53536
2692.38894	0.53506
2690.46029	0.53477
2688.53165	0.53449
2686.60300	0.53424
2684.67436	0.53399
2682.74571	0.53372
2680.81707	0.53341
2678.88842	0.53305
2676.95978	0.53267
2675.03113	0.53232
2673.10249	0.53204
2671.17384	0.53184
2669.24520	0.53173
2667.31655	0.53167
2665.38790	0.53158
2663.45926	0.53140
2661.53061	0.53109
2659.60197	0.53068
2657.67332	0.53021
2655.74468	0.52974
2653.81603	0.52936
2651.88739	0.52908
2649.95874	0.52887
2648.03010	0.52872
2646.10145	0.52859
2644.17281	0.52844
2642.24416	0.52828
2640.31551	0.52810
2638.38687	0.52792
2636.45822	0.52772
2634.52958	0.52749
2632.60093	0.52725
2630.67229	0.52702
2628.74364	0.52683
2626.81500	0.52674
2624.88635	0.52674
2622.95771	0.52678
2621.02906	0.52675
2619.10042	0.52658
2617.17177	0.52626
2615.24312	0.52584
2613.31448	0.52545
2611.38583	0.52521
2609.45719	0.52517
2607.52854	0.52529
2605.59990	0.52547
2603.67125	0.52561
2601.74261	0.52566
2599.81396	0.52558
2597.88532	0.52540
2595.95667	0.52514
2594.02803	0.52485
2592.09938	0.52454
2590.17074	0.52428
2588.24209	0.52413
2586.31344	0.52411
2584.38480	0.52418
2582.45615	0.52425
2580.52751	0.52424
2578.59886	0.52410
2576.67022	0.52384
2574.74157	0.52353
2572.81293	0.52332
2570.88428	0.52329
2568.95564	0.52343
2567.02699	0.52368
2565.09835	0.52390
2563.16970	0.52397
2561.24105	0.52383
2559.31241	0.52354
2557.38376	0.52323
2555.45512	0.52304
2553.52647	0.52304
2551.59783	0.52325
2549.66918	0.52359
2547.74054	0.52394
2545.81189	0.52425
2543.88325	0.52454
2541.95460	0.52481
2540.02596	0.52506
2538.09731	0.52526
2536.16866	0.52532
2534.24002	0.52519
2532.31137	0.52491
2530.38273	0.52460
2528.45408	0.52442
2526.52544	0.52446
2524.59679	0.52471
2522.66815	0.52509
2520.73950	0.52542
2518.81086	0.52558
2516.88221	0.52551
2514.95357	0.52529
2513.02492	0.52506
2511.09627	0.52499
2509.16763	0.52516
2507.23898	0.52554
2505.31034	0.52600
2503.38169	0.52640
2501.45305	0.52661
2499.52440	0.52660
2497.59576	0.52643
2495.66711	0.52623
2493.73847	0.52608
2491.80982	0.52606
2489.88118	0.52621
2487.95253	0.52649
2486.02389	0.52685
2484.09524	0.52721
2482.16659	0.52745
2480.23795	0.52751
2478.30930	0.52739
2476.38066	0.52719
2474.45201	0.52706
2472.52337	0.52711
2470.59472	0.52736
2468.66608	0.52775
2466.73743	0.52815
2464.80879	0.52843
2462.88014	0.52858
2460.95150	0.52863
2459.02285	0.52868
2457.09420	0.52876
2455.16556	0.52888
2453.23691	0.52901
2451.30827	0.52917
2449.37962	0.52935
2447.45098	0.52955
2445.52233	0.52976
2443.59369	0.52997
2441.66504	0.53013
2439.73640	0.53021
2437.80775	0.53028
2435.87911	0.53041
2433.95046	0.53065
2432.02181	0.53097
2430.09317	0.53133
2428.16452	0.53169
2426.23588	0.53201
2424.30723	0.53230
2422.37859	0.53255
2420.44994	0.53272
2418.52130	0.53279
2416.59265	0.53278
2414.66401	0.53276
2412.73536	0.53286
2410.80672	0.53315
2408.87807	0.53363
2406.94942	0.53420
2405.02078	0.53473
2403.09213	0.53512
2401.16349	0.53539
2399.23484	0.53564
2397.30620	0.53595
2395.37755	0.53634
2393.44891	0.53676
2391.52026	0.53710
2389.59162	0.53731
2387.66297	0.53737
2385.73433	0.53738
2383.80568	0.53744
2381.87703	0.53762
2379.94839	0.53793
2378.01974	0.53832
2376.09110	0.53867
2374.16245	0.53892
2372.23381	0.53903
2370.30516	0.53898
2368.37652	0.53881
2366.44787	0.53856
2364.51923	0.53834
2362.59058	0.53824
2360.66194	0.53834
2358.73329	0.53870
2356.80465	0.53932
2354.87600	0.54013
2352.94735	0.54101
2351.01871	0.54187
2349.09006	0.54270
2347.16142	0.54352
2345.23277	0.54435
2343.30413	0.54516
2341.37548	0.54586
2339.44684	0.54634
2337.51819	0.54655
2335.58955	0.54652
2333.66090	0.54637
2331.73226	0.54619
2329.80361	0.54604
2327.87496	0.54590
2325.94632	0.54571
2324.01767	0.54546
2322.08903	0.54520
2320.16038	0.54505
2318.23174	0.54514
2316.30309	0.54553
2314.37445	0.54623
2312.44580	0.54712
2310.51716	0.54809
2308.58851	0.54900
2306.65987	0.54974
2304.73122	0.55026
2302.80257	0.55056
2300.87393	0.55070
2298.94528	0.55074
2297.01664	0.55077
2295.08799	0.55084
2293.15935	0.55098
2291.23070	0.55114
2289.30206	0.55130
2287.37341	0.55143
2285.44477	0.55156
2283.51612	0.55174
2281.58748	0.55199
2279.65883	0.55232
2277.73018	0.55272
2275.80154	0.55312
2273.87289	0.55350
2271.94425	0.55390
2270.01560	0.55435
2268.08696	0.55492
2266.15831	0.55558
2264.22967	0.55628
2262.30102	0.55695
2260.37238	0.55753
2258.44373	0.55797
2256.51509	0.55825
2254.58644	0.55833
2252.65779	0.55830
2250.72915	0.55829
2248.80050	0.55849
2246.87186	0.55902
2244.94321	0.55986
2243.01457	0.56075
2241.08592	0.56135
2239.15728	0.56143
2237.22863	0.56101
2235.29999	0.56038
2233.37134	0.55985
2231.44270	0.55964
2229.51405	0.55975
2227.58541	0.56007
2225.65676	0.56048
2223.72811	0.56090
2221.79947	0.56136
2219.87082	0.56192
2217.94218	0.56258
2216.01353	0.56322
2214.08489	0.56377
2212.15624	0.56420
2210.22760	0.56450
2208.29895	0.56474
2206.37031	0.56498
2204.44166	0.56530
2202.51302	0.56575
2200.58437	0.56636
2198.65572	0.56707
2196.72708	0.56780
2194.79843	0.56848
2192.86979	0.56904
2190.94114	0.56931
2189.01250	0.56914
2187.08385	0.56844
2185.15521	0.56724
2183.22656	0.56570
2181.29792	0.56418
2179.36927	0.56321
2177.44063	0.56313
2175.51198	0.56386
2173.58333	0.56502
2171.65469	0.56616
2169.72604	0.56681
2167.79740	0.56668
2165.86875	0.56583
2163.94011	0.56459
2162.01146	0.56319
2160.08282	0.56182
2158.15417	0.56062
2156.22553	0.55976
2154.29688	0.55935
2152.36824	0.55946
2150.43959	0.56007
2148.51094	0.56108
2146.58230	0.56227
2144.65365	0.56355
2142.72501	0.56493
2140.79636	0.56655
2138.86772	0.56842
2136.93907	0.57040
2135.01043	0.57220
2133.08178	0.57351
2131.15314	0.57412
2129.22449	0.57406
2127.29585	0.57365
2125.36720	0.57332
2123.43856	0.57333
2121.50991	0.57370
2119.58126	0.57430
2117.65262	0.57488
2115.72397	0.57518
2113.79533	0.57510
2111.86668	0.57478
2109.93804	0.57440
2108.00939	0.57407
2106.08075	0.57387
2104.15210	0.57383
2102.22346	0.57393
2100.29481	0.57411
2098.36617	0.57434
2096.43752	0.57456
2094.50887	0.57472
2092.58023	0.57473
2090.65158	0.57452
2088.72294	0.57408
2086.79429	0.57341
2084.86565	0.57252
2082.93700	0.57149
2081.00836	0.57046
2079.07971	0.56958
2077.15107	0.56894
2075.22242	0.56857
2073.29378	0.56840
2071.36513	0.56828
2069.43648	0.56803
2067.50784	0.56752
2065.57919	0.56672
2063.65055	0.56572
2061.72190	0.56466
2059.79326	0.56370
2057.86461	0.56294
2055.93597	0.56239
2054.00732	0.56199
2052.07868	0.56165
2050.15003	0.56130
2048.22139	0.56090
2046.29274	0.56043
2044.36409	0.55975
2042.43545	0.55867
2040.50680	0.55701
2038.57816	0.55477
2036.64951	0.55211
2034.72087	0.54929
2032.79222	0.54664
2030.86358	0.54436
2028.93493	0.54251
2027.00629	0.54104
2025.07764	0.53994
2023.14900	0.53937
2021.22035	0.53957
2019.29170	0.54071
2017.36306	0.54271
2015.43441	0.54520
2013.50577	0.54766
2011.57712	0.54964
2009.64848	0.55091
2007.71983	0.55155
2005.79119	0.55178
2003.86254	0.55175
2001.93390	0.55143
2000.00525	0.55067
1998.07661	0.54942
1996.14796	0.54783
1994.21932	0.54623
1992.29067	0.54394
1990.36202	0.54187
1988.43338	0.54020
1986.50473	0.53851
1984.57609	0.53632
1982.64744	0.53336
1980.71880	0.52975
1978.79015	0.52598
1976.86151	0.52274
1974.93286	0.52057
1973.00422	0.51968
1971.07557	0.51985
1969.14693	0.52052
1967.21828	0.52102
1965.28963	0.52088
1963.36099	0.51997
1961.43234	0.51844
1959.50370	0.51660
1957.57505	0.51473
1955.64641	0.51298
1953.71776	0.51138
1951.78912	0.50988
1949.86047	0.50846
1947.93183	0.50719
1946.00318	0.50606
1944.07454	0.50504
1942.14589	0.50399
1940.21724	0.50279
1938.28860	0.50137
1936.35995	0.49980
1934.43131	0.49820
1932.50266	0.49672
1930.57402	0.49539
1928.64537	0.49413
1926.71673	0.49277
1924.78808	0.49117
1922.85944	0.48929
1920.93079	0.48723
1919.00215	0.48518
1917.07350	0.48330
1915.14485	0.48171
1913.21621	0.48037
1911.28756	0.47916
1909.35892	0.47796
1907.43027	0.47665
1905.50163	0.47520
1903.57298	0.47367
1901.64434	0.47213
1899.71569	0.47064
1897.78705	0.46920
1895.85840	0.46777
1893.92976	0.46633
1892.00111	0.46483
1890.07246	0.46328
1888.14382	0.46168
1886.21517	0.46007
1884.28653	0.45846
1882.35788	0.45688
1880.42924	0.45535
1878.50059	0.45393
1876.57195	0.45265
1874.64330	0.45152
1872.71466	0.45052
1870.78601	0.44960
1868.85737	0.44871
1866.92872	0.44777
1865.00008	0.44678
1863.07143	0.44570
1861.14278	0.44454
1859.21414	0.44331
1857.28549	0.44204
1855.35685	0.44079
1853.42820	0.43960
1851.49956	0.43849
1849.57091	0.43744
1847.64227	0.43641
1845.71362	0.43534
1843.78498	0.43420
1841.85633	0.43300
1839.92769	0.43179
1837.99904	0.43060
1836.07039	0.42945
1834.14175	0.42833
1832.21310	0.42721
1830.28446	0.42611
1828.35581	0.42504
1826.42717	0.42405
1824.49852	0.42313
1822.56988	0.42228
1820.64123	0.42147
1818.71259	0.42065
1816.78394	0.41982
1814.85530	0.41899
1812.92665	0.41815
1810.99800	0.41733
1809.06936	0.41653
1807.14071	0.41572
1805.21207	0.41494
1803.28342	0.41420
1801.35478	0.41352
1799.42613	0.41289
1797.49749	0.41231
1795.56884	0.41175
1793.64020	0.41116
1791.71155	0.41054
1789.78291	0.40989
1787.85426	0.40925
1785.92561	0.40867
1783.99697	0.40823
1782.06832	0.40799
1780.13968	0.40799
1778.21103	0.40821
1776.28239	0.40859
1774.35374	0.40902
1772.42510	0.40939
1770.49645	0.40964
1768.56781	0.40977
1766.63916	0.40983
1764.71052	0.40995
1762.78187	0.41022
1760.85322	0.41074
1758.92458	0.41153
1756.99593	0.41260
1755.06729	0.41388
1753.13864	0.41530
1751.21000	0.41680
1749.28135	0.41833
1747.35271	0.41992
1745.42406	0.42163
1743.49542	0.42356
1741.56677	0.42577
1739.63813	0.42829
1737.70948	0.43106
1735.78084	0.43401
1733.85219	0.43707
1731.92354	0.44021
1729.99490	0.44350
1728.06625	0.44708
1726.13761	0.45108
1724.20896	0.45558
1722.28032	0.46060
1720.35167	0.46606
1718.42303	0.47183
1716.49438	0.47783
1714.56574	0.48404
1712.63709	0.49054
1710.70845	0.49752
1708.77980	0.50514
1706.85115	0.51353
1704.92251	0.52271
1702.99386	0.53258
1701.06522	0.54292
1699.13657	0.55356
1697.20793	0.56439
1695.27928	0.57544
1693.35064	0.58686
1691.42199	0.59880
1689.49335	0.61137
1687.56470	0.62453
1685.63606	0.63814
1683.70741	0.65201
1681.77876	0.66602
1679.85012	0.68012
1677.92147	0.69435
1675.99283	0.70873
1674.06418	0.72328
1672.13554	0.73793
1670.20689	0.75259
1668.27825	0.76716
1666.34960	0.78160
1664.42096	0.79591
1662.49231	0.81012
1660.56367	0.82423
1658.63502	0.83813
1656.70637	0.85161
1654.77773	0.86441
1652.84908	0.87620
1650.92044	0.88675
1648.99179	0.89593
1647.06315	0.90371
1645.13450	0.91012
1643.20586	0.91515
1641.27721	0.91871
1639.34857	0.92061
1637.41992	0.92062
1635.49128	0.91850
1633.56263	0.91411
1631.63399	0.90742
1629.70534	0.89852
1627.77669	0.88760
1625.84805	0.87490
1623.91940	0.86068
1621.99076	0.84514
1620.06211	0.82850
1618.13347	0.81096
1616.20482	0.79275
1614.27618	0.77417
1612.34753	0.75552
1610.41889	0.73709
1608.49024	0.71913
1606.56160	0.70179
1604.63295	0.68515
1602.70430	0.66924
1600.77566	0.65402
1598.84701	0.63947
1596.91837	0.62553
1594.98972	0.61220
1593.06108	0.59944
1591.13243	0.58729
1589.20379	0.57575
1587.27514	0.56488
1585.34650	0.55468
1583.41785	0.54513
1581.48921	0.53619
1579.56056	0.52776
1577.63191	0.51972
1575.70327	0.51197
1573.77462	0.50445
1571.84598	0.49718
1569.91733	0.49027
1567.98869	0.48383
1566.06004	0.47793
1564.13140	0.47251
1562.20275	0.46742
1560.27411	0.46239
1558.34546	0.45721
1556.41682	0.45175
1554.48817	0.44609
1552.55952	0.44044
1550.63088	0.43506
1548.70223	0.43011
1546.77359	0.42562
1544.84494	0.42143
1542.91630	0.41732
1540.98765	0.41306
1539.05901	0.40857
1537.13036	0.40392
1535.20172	0.39929
1533.27307	0.39490
1531.34443	0.39094
1529.41578	0.38750
1527.48713	0.38453
1525.55849	0.38189
1523.62984	0.37937
1521.70120	0.37680
1519.77255	0.37407
1517.84391	0.37116
1515.91526	0.36815
1513.98662	0.36511
1512.05797	0.36210
1510.12933	0.35910
1508.20068	0.35606
1506.27204	0.35291
1504.34339	0.34964
1502.41475	0.34632
1500.48610	0.34305
1498.55745	0.33991
1496.62881	0.33694
1494.70016	0.33413
1492.77152	0.33143
1490.84287	0.32880
1488.91423	0.32621
1486.98558	0.32369
1485.05694	0.32133
1483.12829	0.31922
1481.19965	0.31744
1479.27100	0.31603
1477.34236	0.31493
1475.41371	0.31404
1473.48506	0.31319
1471.55642	0.31228
1469.62777	0.31127
1467.69913	0.31017
1465.77048	0.30905
1463.84184	0.30791
1461.91319	0.30672
1459.98455	0.30537
1458.05590	0.30376
1456.12726	0.30180
1454.19861	0.29952
1452.26997	0.29703
1450.34132	0.29449
1448.41267	0.29208
1446.48403	0.28990
1444.55538	0.28804
1442.62674	0.28646
1440.69809	0.28509
1438.76945	0.28384
1436.84080	0.28262
1434.91216	0.28137
1432.98351	0.28009
1431.05487	0.27885
1429.12622	0.27771
1427.19758	0.27674
1425.26893	0.27592
1423.34028	0.27518
1421.41164	0.27441
1419.48299	0.27352
1417.55435	0.27244
1415.62570	0.27120
1413.69706	0.26986
1411.76841	0.26849
1409.83977	0.26717
1407.91112	0.26591
1405.98248	0.26474
1404.05383	0.26362
1402.12519	0.26251
1400.19654	0.26137
1398.26789	0.26017
1396.33925	0.25887
1394.41060	0.25745
1392.48196	0.25594
1390.55331	0.25436
1388.62467	0.25273
1386.69602	0.25105
1384.76738	0.24935
1382.83873	0.24760
1380.91009	0.24581
1378.98144	0.24399
1377.05280	0.24214
1375.12415	0.24029
1373.19551	0.23845
1371.26686	0.23665
1369.33821	0.23490
1367.40957	0.23320
1365.48092	0.23154
1363.55228	0.22988
1361.62363	0.22818
1359.69499	0.22642
1357.76634	0.22462
1355.83770	0.22278
1353.90905	0.22094
1351.98041	0.21910
1350.05176	0.21730
1348.12312	0.21553
1346.19447	0.21382
1344.26582	0.21215
1342.33718	0.21053
1340.40853	0.20894
1338.47989	0.20734
1336.55124	0.20573
1334.62260	0.20408
1332.69395	0.20239
1330.76531	0.20066
1328.83666	0.19891
1326.90802	0.19715
1324.97937	0.19540
1323.05073	0.19370
1321.12208	0.19208
1319.19343	0.19052
1317.26479	0.18903
1315.33614	0.18756
1313.40750	0.18608
1311.47885	0.18456
1309.55021	0.18302
1307.62156	0.18149
1305.69292	0.18001
1303.76427	0.17861
1301.83563	0.17730
1299.90698	0.17606
1297.97834	0.17485
1296.04969	0.17365
1294.12104	0.17244
1292.19240	0.17123
1290.26375	0.17005
1288.33511	0.16892
1286.40646	0.16786
1284.47782	0.16685
1282.54917	0.16585
1280.62053	0.16483
1278.69188	0.16373
1276.76324	0.16256
1274.83459	0.16131
1272.90595	0.16003
1270.97730	0.15876
1269.04866	0.15754
1267.12001	0.15638
1265.19136	0.15526
1263.26272	0.15414
1261.33407	0.15297
1259.40543	0.15170
1257.47678	0.15033
1255.54814	0.14889
1253.61949	0.14743
1251.69085	0.14601
1249.76220	0.14463
1247.83356	0.14331
1245.90491	0.14200
1243.97627	0.14066
1242.04762	0.13928
1240.11897	0.13787
1238.19033	0.13646
1236.26168	0.13508
1234.33304	0.13374
1232.40439	0.13243
1230.47575	0.13110
1228.54710	0.12973
1226.61846	0.12828
1224.68981	0.12676
1222.76117	0.12521
1220.83252	0.12366
1218.90388	0.12216
1216.97523	0.12072
1215.04658	0.11935
1213.11794	0.11801
1211.18929	0.11668
1209.26065	0.11531
1207.33200	0.11386
1205.40336	0.11233
1203.47471	0.11074
1201.54607	0.10913
1199.61742	0.10759
1197.68878	0.10618
1195.76013	0.10492
1193.83149	0.10380
1191.90284	0.10280
1189.97419	0.10188
1188.04555	0.10102
1186.11690	0.10024
1184.18826	0.09954
1182.25961	0.09891
1180.33097	0.09830
1178.40232	0.09769
1176.47368	0.09712
1174.54503	0.09663
1172.61639	0.09629
1170.68774	0.09616
1168.75910	0.09620
1166.83045	0.09630
1164.90180	0.09635
1162.97316	0.09622
1161.04451	0.09590
1159.11587	0.09543
1157.18722	0.09493
1155.25858	0.09451
1153.32993	0.09427
1151.40129	0.09420
1149.47264	0.09425
1147.54400	0.09435
1145.61535	0.09446
1143.68671	0.09459
1141.75806	0.09479
1139.82942	0.09517
1137.90077	0.09576
1135.97212	0.09656
1134.04348	0.09751
1132.11483	0.09856
1130.18619	0.09964
1128.25754	0.10073
1126.32890	0.10176
1124.40025	0.10271
1122.47161	0.10353
1120.54296	0.10421
1118.61432	0.10477
1116.68567	0.10527
1114.75703	0.10581
1112.82838	0.10640
1110.89973	0.10702
1108.97109	0.10763
1107.04244	0.10824
1105.11380	0.10887
1103.18515	0.10954
1101.25651	0.11030
1099.32786	0.11117
1097.39922	0.11212
1095.47057	0.11308
1093.54193	0.11398
1091.61328	0.11477
1089.68464	0.11540
1087.75599	0.11582
1085.82734	0.11594
1083.89870	0.11566
1081.97005	0.11486
1080.04141	0.11344
1078.11276	0.11136
1076.18412	0.10869
1074.25547	0.10552
1072.32683	0.10198
1070.39818	0.09815
1068.46954	0.09408
1066.54089	0.08983
1064.61225	0.08548
1062.68360	0.08115
1060.75495	0.07693
1058.82631	0.07290
1056.89766	0.06908
1054.96902	0.06546
1053.04037	0.06199
1051.11173	0.05863
1049.18308	0.05539
1047.25444	0.05229
1045.32579	0.04939
1043.39715	0.04670
1041.46850	0.04422
1039.53986	0.04194
1037.61121	0.03981
1035.68256	0.03777
1033.75392	0.03578
1031.82527	0.03381
1029.89663	0.03184
1027.96798	0.02987
1026.03934	0.02789
1024.11069	0.02593
1022.18205	0.02397
1020.25340	0.02205
1018.32476	0.02019
1016.39611	0.01843
1014.46747	0.01685
1012.53882	0.01548
1010.61018	0.01434
1008.68153	0.01340
1006.75288	0.01268
1004.82424	0.01220
1002.89559	0.01206
1000.96695	0.01237
999.03830	0.01319
997.10966	0.01445
995.18101	0.01592
993.25237	0.01723
991.32372	0.01803
989.39508	0.01805
987.46643	0.01722
985.53779	0.01563
983.60914	0.01350
981.68049	0.01111
979.75185	0.00875
977.82320	0.00663
975.89456	0.00487
973.96591	0.00351
972.03727	0.00249
970.10862	0.00172
968.17998	0.00110
966.25133	0.00056
964.32269	0.00015
962.39404	-0.00000
960.46540	0.00019
958.53675	0.00074
956.60810	0.00157
954.67946	0.00261
952.75081	0.00376
950.82217	0.00497
948.89352	0.00626
946.96488	0.00768
945.03623	0.00921
943.10759	0.01080
941.17894	0.01239
939.25030	0.01401
937.32165	0.01568
935.39301	0.01743
933.46436	0.01930
931.53571	0.02125
929.60707	0.02325
927.67842	0.02528
925.74978	0.02735
923.82113	0.02951
921.89249	0.03180
919.96384	0.03425
918.03520	0.03682
916.10655	0.03951
914.17791	0.04229
912.24926	0.04519
910.32062	0.04820
908.39197	0.05137
906.46333	0.05477
904.53468	0.05853
902.60603	0.06271
900.67739	0.06730
898.74874	0.07220
896.82010	0.07723
894.89145	0.08217
892.96281	0.08691
891.03416	0.09148
889.10552	0.09606
887.17687	0.10080
885.24823	0.10574
883.31958	0.11088
881.39094	0.11617
879.46229	0.12151
877.53364	0.12687
875.60500	0.13235
873.67635	0.13809
871.74771	0.14417
869.81906	0.15055
867.89042	0.15713
865.96177	0.16373
864.03313	0.17017
862.10448	0.17632
860.17584	0.18223
858.24719	0.18803
856.31855	0.19384
854.38990	0.19971
852.46125	0.20563
850.53261	0.21159
848.60396	0.21755
846.67532	0.22353
844.74667	0.22959
842.81803	0.23574
840.88938	0.24198
838.96074	0.24829
837.03209	0.25468
835.10345	0.26117
833.17480	0.26780
831.24616	0.27450
829.31751	0.28110
827.38886	0.28739
825.46022	0.29328
823.53157	0.29885
821.60293	0.30435
819.67428	0.31011
817.74564	0.31636
815.81699	0.32313
813.88835	0.33025
811.95970	0.33746
810.03106	0.34462
808.10241	0.35170
806.17377	0.35874
804.24512	0.36579
802.31647	0.37283
800.38783	0.37980
798.45918	0.38658
796.53054	0.39312
794.60189	0.39950
792.67325	0.40583
790.74460	0.41224
788.81596	0.41882
786.88731	0.42556
784.95867	0.43240
783.03002	0.43923
781.10138	0.44601
779.17273	0.45275
777.24409	0.45952
775.31544	0.46640
773.38679	0.47337
771.45815	0.48037
769.52950	0.48728
767.60086	0.49398
765.67221	0.50042
763.74357	0.50663
761.81492	0.51271
759.88628	0.51872
757.95763	0.52474
756.02899	0.53087
754.10034	0.53719
752.17170	0.54367
750.24305	0.55016
748.31440	0.55644
746.38576	0.56228
744.45711	0.56760
742.52847	0.57260
740.59982	0.57769
738.67118	0.58329
736.74253	0.58963
734.81389	0.59662
732.88524	0.60389
730.95660	0.61100
729.02795	0.61763
727.09931	0.62370
725.17066	0.62938
723.24201	0.63497
721.31337	0.64069
719.38472	0.64667
717.45608	0.65286
715.52743	0.65914
713.59879	0.66538
711.67014	0.67150
709.74150	0.67749
707.81285	0.68339
705.88421	0.68921
703.95556	0.69497
702.02692	0.70062
700.09827	0.70612
698.16962	0.71141
696.24098	0.71651
694.31233	0.72144
692.38369	0.72626
690.45504	0.73105
688.52640	0.73585
686.59775	0.74062
684.66911	0.74531
682.74046	0.74985
680.81182	0.75427
678.88317	0.75870
676.95453	0.76331
675.02588	0.76819
673.09723	0.77330
671.16859	0.77849
669.23994	0.78351
667.31130	0.78816
665.38265	0.79238
663.45401	0.79631
661.52536	0.80017
659.59672	0.80407
657.66807	0.80806
655.73943	0.81209
653.81078	0.81605
651.88214	0.81987
649.95349	0.82355
648.02485	0.82714
646.09620	0.83070
644.16755	0.83426
642.23891	0.83780
640.31026	0.84130
638.38162	0.84471
636.45297	0.84796
634.52433	0.85097
632.59568	0.85370
630.66704	0.85623
628.73839	0.85879
626.80975	0.86159
624.88110	0.86462
622.95246	0.86736
621.02381	0.86881
619.09516	0.86807
617.16652	0.86512
615.23787	0.86118
613.30923	0.85842
611.38058	0.85910
609.45194	0.86449
607.52329	0.87403
605.59465	0.88549
603.66600	0.89612
601.73736	0.90399
599.80871	0.90851
597.88007	0.91025
595.95142	0.91033
594.02277	0.90986
592.09413	0.90954
590.16548	0.90962
588.23684	0.91030
586.30819	0.91181
584.37955	0.91431
582.45090	0.91763
580.52226	0.92135
578.59361	0.92486
576.66497	0.92763
574.73632	0.92938
572.80768	0.93015
570.87903	0.93022
568.95038	0.92999
567.02174	0.92986
565.09309	0.93016
563.16445	0.93106
561.23580	0.93255
559.30716	0.93453
557.37851	0.93684
555.44987	0.93930
553.52122	0.94175
551.59258	0.94409
549.66393	0.94625
547.73529	0.94824
545.80664	0.95008
543.87800	0.95187
541.94935	0.95372
540.02070	0.95572
538.09206	0.95782
536.16341	0.95984
534.23477	0.96150
532.30612	0.96252
530.37748	0.96274
528.44883	0.96219
526.52019	0.96111
524.59154	0.95980
522.66290	0.95857
520.73425	0.95765
518.80561	0.95711
516.87696	0.95689
514.94831	0.95684
513.01967	0.95679
511.09102	0.95660
509.16238	0.95613
507.23373	0.95530
505.30509	0.95407
503.37644	0.95250
501.44780	0.95065
499.51915	0.94866
497.59051	0.94666
495.66186	0.94474
493.73322	0.94292
491.80457	0.94117
489.87592	0.93943
487.94728	0.93767
486.01863	0.93586
484.08999	0.93401
482.16134	0.93211
480.23270	0.93010
478.30405	0.92792
476.37541	0.92556
474.44676	0.92310
472.51812	0.92070
470.58947	0.91850
468.66083	0.91663
466.73218	0.91512
464.80353	0.91390
462.87489	0.91292
460.94624	0.91215
459.01760	0.91165
457.08895	0.91150
455.16031	0.91170
453.23166	0.91209
451.30302	0.91242
449.37437	0.91238
447.44573	0.91174
445.51708	0.91045
443.58844	0.90864
441.65979	0.90656
439.73114	0.90445
437.80250	0.90241
435.87385	0.90042
433.94521	0.89838
432.01656	0.89614
430.08792	0.89365
428.15927	0.89088
426.23063	0.88787
424.30198	0.88466
422.37334	0.88127
420.44469	0.87772
418.51605	0.87406
416.58740	0.87036
414.65876	0.86670
412.73011	0.86312
410.80146	0.85968
408.87282	0.85640
406.94417	0.85329
405.01553	0.85032
403.08688	0.84742
401.15824	0.84447
399.22959	0.84131
397.30095	0.83780
395.37230	0.83387
393.44366	0.82954
391.51501	0.82493
389.58637	0.82023
387.65772	0.81562
385.72907	0.81130
383.80043	0.80734
381.87178	0.80373
379.94314	0.80028
378.01449	0.79668
376.08585	0.79263
374.15720	0.78791
372.22856	0.78250
370.29991	0.77655
368.37127	0.77030
366.44262	0.76399
364.51398	0.75777
362.58533	0.75171
360.65668	0.74582
358.72804	0.74010
356.79939	0.73450
354.87075	0.72900
352.94210	0.72350
351.01346	0.71789
349.08481	0.71206
347.15617	0.70597
345.22752	0.69965
343.29888	0.69316
341.37023	0.68661
339.44159	0.68009
337.51294	0.67373
335.58429	0.66762
333.65565	0.66177
331.72700	0.65611
329.79836	0.65040
327.86971	0.64441
325.94107	0.63792
324.01242	0.63095
322.08378	0.62375
320.15513	0.61668
318.22649	0.61012
316.29784	0.60432
314.36920	0.59936
312.44055	0.59522
310.51190	0.59168
308.58326	0.58836
306.65461	0.58480
304.72597	0.58056
302.79732	0.57541
300.86868	0.56948
298.94003	0.56323
297.01139	0.55734
295.08274	0.55229
293.15410	0.54828
291.22545	0.54519
289.29681	0.54271
287.36816	0.54056
285.43952	0.53853
283.51087	0.53653
281.58222	0.53448
279.65358	0.53231
277.72493	0.53096
275.79629	0.53019
273.86764	0.52981
271.93900	0.53008
270.01035	0.53116
268.08171	0.53299
266.15306	0.53536
264.22442	0.53807
262.29577	0.54111
260.36713	0.54462
258.43848	0.54876
256.50983	0.55354
254.58119	0.55879
252.65254	0.56419
250.72390	0.56933
248.79525	0.57390
246.86661	0.57777
244.93796	0.58109
243.00932	0.58420
241.08067	0.58766
239.15203	0.59208
237.22338	0.59793
235.29474	0.60526
233.36609	0.61369
231.43744	0.62249
229.50880	0.63091
227.58015	0.63860
225.65151	0.64568
223.72286	0.65274
221.79422	0.66047
219.86557	0.66935
217.93693	0.67934
216.00828	0.69004
214.07964	0.70094
212.15099	0.71165
210.22235	0.72189
208.29370	0.73146
206.36505	0.74022
204.43641	0.74808
202.50776	0.75513
200.57912	0.76175
198.65047	0.76862
196.72183	0.77644
194.79318	0.78568
192.86454	0.79633
190.93589	0.80805
189.00725	0.82028
187.07860	0.83254
185.14996	0.84458
183.22131	0.85630
181.29267	0.86753
179.36402	0.87798
177.43537	0.88728
175.50673	0.89511
173.57808	0.90133
171.64944	0.90605
169.72079	0.90952
167.79215	0.91199
165.86350	0.91372
163.93486	0.91514
162.00621	0.91803
160.07757	0.92179
158.14892	0.92583
156.22028	0.92959
154.29163	0.92959
152.36298	0.92959
150.43434	0.92959
148.50569	0.92959
