4497.60101	0.15820
4495.67236	0.15820
4493.74372	0.15820
4491.81507	0.15820
4489.88643	0.15820
4487.95778	0.15630
4486.02914	0.15567
4484.10049	0.15715
4482.17185	0.16040
4480.24320	0.16391
4478.31455	0.16484
4476.38591	0.16182
4474.45726	0.15548
4472.52862	0.14834
4470.59997	0.14368
4468.67133	0.14369
4466.74268	0.14827
4464.81404	0.15537
4462.88539	0.16237
4460.95675	0.16726
4459.02810	0.16918
4457.09946	0.16851
4455.17081	0.16636
4453.24216	0.16386
4451.31352	0.16172
4449.38487	0.16013
4447.45623	0.15877
4445.52758	0.15706
4443.59894	0.15467
4441.67029	0.15178
4439.74165	0.14907
4437.81300	0.14755
4435.88436	0.14825
4433.95571	0.15162
4432.02707	0.15706
4430.09842	0.16312
4428.16978	0.16796
4426.24113	0.17003
4424.31248	0.16856
4422.38384	0.16393
4420.45519	0.15744
4418.52655	0.15073
4416.59790	0.14547
4414.66926	0.14283
4412.74061	0.14297
4410.81197	0.14500
4408.88332	0.14748
4406.95468	0.14903
4405.02603	0.14843
4403.09739	0.14505
4401.16874	0.13964
4399.24009	0.13451
4397.31145	0.13221
4395.38280	0.13438
4393.45416	0.14118
4391.52551	0.15132
4389.59687	0.16214
4387.66822	0.17049
4385.73958	0.17437
4383.81093	0.17374
4381.88229	0.16979
4379.95364	0.16389
4378.02500	0.15730
4376.09635	0.15101
4374.16770	0.14563
4372.23906	0.14163
4370.31041	0.13980
4368.38177	0.14096
4366.45312	0.14531
4364.52448	0.15204
4362.59583	0.15947
4360.66719	0.16555
4358.73854	0.16869
4356.80990	0.16848
4354.88125	0.16577
4352.95261	0.16220
4351.02396	0.15947
4349.09531	0.15843
4347.16667	0.15855
4345.23802	0.15864
4343.30938	0.15795
4341.38073	0.15644
4339.45209	0.15457
4337.52344	0.15291
4335.59480	0.15180
4333.66615	0.15089
4331.73751	0.14928
4329.80886	0.14643
4327.88022	0.14305
4325.95157	0.14082
4324.02292	0.14134
4322.09428	0.14527
4320.16563	0.15203
4318.23699	0.15996
4316.30834	0.16667
4314.37970	0.16997
4312.45105	0.16917
4310.52241	0.16523
4308.59376	0.16000
4306.66512	0.15522
4304.73647	0.15199
4302.80783	0.15054
4300.87918	0.15041
4298.95054	0.15106
4297.02189	0.15228
4295.09324	0.15376
4293.16460	0.15489
4291.23595	0.15500
4289.30731	0.15363
4287.37866	0.15076
4285.45002	0.14721
4283.52137	0.14441
4281.59273	0.14338
4279.66408	0.14383
4277.73544	0.14443
4275.80679	0.14392
4273.87815	0.14202
4271.94950	0.13949
4270.02085	0.13760
4268.09221	0.13737
4266.16356	0.13890
4264.23492	0.14125
4262.30627	0.14306
4260.37763	0.14352
4258.44898	0.14299
4256.52034	0.14260
4254.59169	0.14329
4252.66305	0.14505
4250.73440	0.14711
4248.80576	0.14851
4246.87711	0.14865
4244.94846	0.14764
4243.01982	0.14625
4241.09117	0.14538
4239.16253	0.14533
4237.23388	0.14576
4235.30524	0.14626
4233.37659	0.14672
4231.44795	0.14743
4229.51930	0.14891
4227.59066	0.15138
4225.66201	0.15413
4223.73337	0.15590
4221.80472	0.15589
4219.87607	0.15435
4217.94743	0.15218
4216.01878	0.15034
4214.09014	0.14945
4212.16149	0.14935
4210.23285	0.14911
4208.30420	0.14796
4206.37556	0.14631
4204.44691	0.14552
4202.51827	0.14660
4200.58962	0.14941
4198.66098	0.15285
4196.73233	0.15528
4194.80368	0.15507
4192.87504	0.15168
4190.94639	0.14630
4189.01775	0.14122
4187.08910	0.13849
4185.16046	0.13897
4183.23181	0.14216
4181.30317	0.14648
4179.37452	0.15020
4177.44588	0.15236
4175.51723	0.15315
4173.58859	0.15334
4171.65994	0.15344
4169.73130	0.15322
4167.80265	0.15184
4165.87400	0.14871
4163.94536	0.14422
4162.01671	0.13967
4160.08807	0.13634
4158.15942	0.13472
4156.23078	0.13434
4154.30213	0.13424
4152.37349	0.13363
4150.44484	0.13244
4148.51620	0.13148
4146.58755	0.13193
4144.65891	0.13449
4142.73026	0.13899
4140.80161	0.14451
4138.87297	0.14971
4136.94432	0.15305
4135.01568	0.15328
4133.08703	0.15022
4131.15839	0.14513
4129.22974	0.14019
4127.30110	0.13756
4125.37245	0.13859
4123.44381	0.14327
4121.51516	0.15006
4119.58652	0.15643
4117.65787	0.16027
4115.72922	0.16078
4113.80058	0.15842
4111.87193	0.15441
4109.94329	0.15015
4108.01464	0.14680
4106.08600	0.14486
4104.15735	0.14436
4102.22871	0.14526
4100.30006	0.14747
4098.37142	0.15064
4096.44277	0.15399
4094.51413	0.15637
4092.58548	0.15667
4090.65683	0.15444
4088.72819	0.15029
4086.79954	0.14570
4084.87090	0.14236
4082.94225	0.14138
4081.01361	0.14278
4079.08496	0.14562
4077.15632	0.14860
4075.22767	0.15073
4073.29903	0.15161
4071.37038	0.15127
4069.44174	0.14983
4067.51309	0.14751
4065.58444	0.14478
4063.65580	0.14248
4061.72715	0.14159
4059.79851	0.14279
4057.86986	0.14611
4055.94122	0.15087
4054.01257	0.15570
4052.08393	0.15909
4050.15528	0.16024
4048.22664	0.15920
4046.29799	0.15638
4044.36935	0.15227
4042.44070	0.14757
4040.51206	0.14327
4038.58341	0.14009
4036.65476	0.13816
4034.72612	0.13733
4032.79747	0.13747
4030.86883	0.13833
4028.94018	0.13974
4027.01154	0.14188
4025.08289	0.14508
4023.15425	0.14908
4021.22560	0.15280
4019.29696	0.15509
4017.36831	0.15557
4015.43967	0.15445
4013.51102	0.15243
4011.58237	0.15048
4009.65373	0.14943
4007.72508	0.14944
4005.79644	0.15001
4003.86779	0.15053
4001.93915	0.15074
4000.01050	0.15052
3998.08186	0.14976
3996.15321	0.14854
3994.22457	0.14706
3992.29592	0.14550
3990.36728	0.14399
3988.43863	0.14274
3986.50998	0.14196
3984.58134	0.14174
3982.65269	0.14195
3980.72405	0.14235
3978.79540	0.14265
3976.86676	0.14261
3974.93811	0.14219
3973.00947	0.14150
3971.08082	0.14077
3969.15218	0.14022
3967.22353	0.14003
3965.29489	0.14037
3963.36624	0.14138
3961.43759	0.14307
3959.50895	0.14524
3957.58030	0.14744
3955.65166	0.14909
3953.72301	0.14965
3951.79437	0.14890
3949.86572	0.14713
3947.93708	0.14511
3946.00843	0.14371
3944.07979	0.14356
3942.15114	0.14481
3940.22250	0.14704
3938.29385	0.14947
3936.36521	0.15121
3934.43656	0.15168
3932.50791	0.15079
3930.57927	0.14886
3928.65062	0.14651
3926.72198	0.14448
3924.79333	0.14337
3922.86469	0.14354
3920.93604	0.14497
3919.00740	0.14728
3917.07875	0.14973
3915.15011	0.15140
3913.22146	0.15144
3911.29282	0.14936
3909.36417	0.14530
3907.43552	0.13994
3905.50688	0.13438
3903.57823	0.12974
3901.64959	0.12690
3899.72094	0.12613
3897.79230	0.12709
3895.86365	0.12904
3893.93501	0.13129
3892.00636	0.13334
3890.07772	0.13499
3888.14907	0.13631
3886.22043	0.13745
3884.29178	0.13832
3882.36313	0.13854
3880.43449	0.13763
3878.50584	0.13536
3876.57720	0.13196
3874.64855	0.12821
3872.71991	0.12525
3870.79126	0.12411
3868.86262	0.12523
3866.93397	0.12812
3865.00533	0.13157
3863.07668	0.13420
3861.14804	0.13512
3859.21939	0.13429
3857.29074	0.13245
3855.36210	0.13073
3853.43345	0.13009
3851.50481	0.13084
3849.57616	0.13265
3847.64752	0.13483
3845.71887	0.13682
3843.79023	0.13833
3841.86158	0.13946
3839.93294	0.14054
3838.00429	0.14191
3836.07565	0.14367
3834.14700	0.14552
3832.21835	0.14688
3830.28971	0.14704
3828.36106	0.14554
3826.43242	0.14243
3824.50377	0.13841
3822.57513	0.13467
3820.64648	0.13231
3818.71784	0.13183
3816.78919	0.13295
3814.86055	0.13470
3812.93190	0.13591
3811.00326	0.13578
3809.07461	0.13432
3807.14597	0.13231
3805.21732	0.13075
3803.28867	0.13044
3801.36003	0.13160
3799.43138	0.13389
3797.50274	0.13654
3795.57409	0.13886
3793.64545	0.14052
3791.71680	0.14158
3789.78816	0.14228
3787.85951	0.14289
3785.93087	0.14358
3784.00222	0.14435
3782.07358	0.14510
3780.14493	0.14571
3778.21628	0.14604
3776.28764	0.14591
3774.35899	0.14516
3772.43035	0.14385
3770.50170	0.14235
3768.57306	0.14132
3766.64441	0.14136
3764.71577	0.14260
3762.78712	0.14433
3760.85848	0.14516
3758.92983	0.14351
3757.00119	0.13836
3755.07254	0.12990
3753.14389	0.11978
3751.21525	0.11070
3749.28660	0.10529
3747.35796	0.10500
3745.42931	0.10957
3743.50067	0.11713
3741.57202	0.12501
3739.64338	0.13082
3737.71473	0.13359
3735.78609	0.13392
3733.85744	0.13329
3731.92880	0.13315
3730.00015	0.13423
3728.07150	0.13640
3726.14286	0.13894
3724.21421	0.14108
3722.28557	0.14233
3720.35692	0.14252
3718.42828	0.14171
3716.49963	0.14011
3714.57099	0.13818
3712.64234	0.13656
3710.71370	0.13597
3708.78505	0.13692
3706.85641	0.13951
3704.92776	0.14325
3702.99911	0.14720
3701.07047	0.15036
3699.14182	0.15198
3697.21318	0.15187
3695.28453	0.15052
3693.35589	0.14894
3691.42724	0.14827
3689.49860	0.14923
3687.56995	0.15163
3685.64131	0.15453
3683.71266	0.15676
3681.78402	0.15766
3679.85537	0.15757
3677.92673	0.15775
3675.99808	0.15976
3674.06943	0.16472
3672.14079	0.17271
3670.21214	0.18283
3668.28350	0.19375
3666.35485	0.20437
3664.42621	0.21414
3662.49756	0.22301
3660.56892	0.23106
3658.64027	0.23825
3656.71163	0.24444
3654.78298	0.24961
3652.85434	0.25421
3650.92569	0.25923
3648.99704	0.26588
3647.06840	0.27492
3645.13975	0.28616
3643.21111	0.29850
3641.28246	0.31045
3639.35382	0.32082
3637.42517	0.32926
3635.49653	0.33638
3633.56788	0.34338
3631.63924	0.35142
3629.71059	0.36103
3627.78195	0.37205
3625.85330	0.38373
3623.92465	0.39514
3621.99601	0.40558
3620.06736	0.41488
3618.13872	0.42345
3616.21007	0.43203
3614.28143	0.44133
3612.35278	0.45169
3610.42414	0.46284
3608.49549	0.47415
3606.56685	0.48498
3604.63820	0.49508
3602.70956	0.50473
3600.78091	0.51447
3598.85226	0.52480
3596.92362	0.53596
3594.99497	0.54783
3593.06633	0.56009
3591.13768	0.57246
3589.20904	0.58479
3587.28039	0.59704
3585.35175	0.60910
3583.42310	0.62083
3581.49446	0.63213
3579.56581	0.64304
3577.63717	0.65375
3575.70852	0.66465
3573.77988	0.67626
3571.85123	0.68898
3569.92258	0.70289
3567.99394	0.71766
3566.06529	0.73254
3564.13665	0.74662
3562.20800	0.75915
3560.27936	0.76996
3558.35071	0.77950
3556.42207	0.78861
3554.49342	0.79804
3552.56478	0.80807
3550.63613	0.81851
3548.70749	0.82897
3546.77884	0.83918
3544.85019	0.84930
3542.92155	0.85985
3540.99290	0.87140
3539.06426	0.88410
3537.13561	0.89759
3535.20697	0.91120
3533.27832	0.92428
3531.34968	0.93647
3529.42103	0.94783
3527.49239	0.95878
3525.56374	0.96983
3523.63510	0.98129
3521.70645	0.99312
3519.77780	1.00511
3517.84916	1.01701
3515.92051	1.02872
3513.99187	1.04018
3512.06322	1.05146
3510.13458	1.06263
3508.20593	1.07380
3506.27729	1.08498
3504.34864	1.09612
3502.42000	1.10710
3500.49135	1.11771
3498.56271	1.12765
3496.63406	1.13668
3494.70541	1.14490
3492.77677	1.15268
3490.84812	1.16043
3488.91948	1.16842
3486.99083	1.17669
3485.06219	1.18521
3483.13354	1.19398
3481.20490	1.20324
3479.27625	1.21331
3477.34761	1.22427
3475.41896	1.23567
3473.49032	1.24666
3471.56167	1.25635
3469.63302	1.26441
3467.70438	1.27121
3465.77573	1.27773
3463.84709	1.28492
3461.91844	1.29320
3459.98980	1.30221
3458.06115	1.31106
3456.13251	1.31882
3454.20386	1.32504
3452.27522	1.32989
3450.34657	1.33411
3448.41793	1.33857
3446.48928	1.34395
3444.56064	1.35060
3442.63199	1.35851
3440.70334	1.36743
3438.77470	1.37694
3436.84605	1.38647
3434.91741	1.39530
3432.98876	1.40271
3431.06012	1.40820
3429.13147	1.41173
3427.20283	1.41378
3425.27418	1.41529
3423.34554	1.41733
3421.41689	1.42064
3419.48825	1.42543
3417.55960	1.43137
3415.63095	1.43788
3413.70231	1.44436
3411.77366	1.45049
3409.84502	1.45614
3407.91637	1.46136
3405.98773	1.46620
3404.05908	1.47063
3402.13044	1.47463
3400.20179	1.47812
3398.27315	1.48099
3396.34450	1.48315
3394.41586	1.48449
3392.48721	1.48509
3390.55856	1.48519
3388.62992	1.48523
3386.70127	1.48573
3384.77263	1.48708
3382.84398	1.48930
3380.91534	1.49204
3378.98669	1.49466
3377.05805	1.49648
3375.12940	1.49704
3373.20076	1.49630
3371.27211	1.49472
3369.34347	1.49300
3367.41482	1.49177
3365.48617	1.49134
3363.55753	1.49159
3361.62888	1.49210
3359.70024	1.49242
3357.77159	1.49222
3355.84295	1.49138
3353.91430	1.48989
3351.98566	1.48776
3350.05701	1.48512
3348.12837	1.48224
3346.19972	1.47955
3344.27108	1.47749
3342.34243	1.47635
3340.41378	1.47610
3338.48514	1.47636
3336.55649	1.47657
3334.62785	1.47639
3332.69920	1.47583
3330.77056	1.47516
3328.84191	1.47466
3326.91327	1.47448
3324.98462	1.47448
3323.05598	1.47423
3321.12733	1.47330
3319.19869	1.47155
3317.27004	1.46925
3315.34140	1.46699
3313.41275	1.46543
3311.48410	1.46505
3309.55546	1.46597
3307.62681	1.46781
3305.69817	1.46986
3303.76952	1.47131
3301.84088	1.47150
3299.91223	1.47014
3297.98359	1.46730
3296.05494	1.46345
3294.12630	1.45927
3292.19765	1.45546
3290.26901	1.45249
3288.34036	1.45057
3286.41171	1.44962
3284.48307	1.44931
3282.55442	1.44912
3280.62578	1.44846
3278.69713	1.44686
3276.76849	1.44409
3274.83984	1.44021
3272.91120	1.43565
3270.98255	1.43105
3269.05391	1.42696
3267.12526	1.42353
3265.19662	1.42046
3263.26797	1.41723
3261.33932	1.41338
3259.41068	1.40865
3257.48203	1.40310
3255.55339	1.39690
3253.62474	1.39020
3251.69610	1.38305
3249.76745	1.37551
3247.83881	1.36780
3245.91016	1.36047
3243.98152	1.35415
3242.05287	1.34928
3240.12423	1.34586
3238.19558	1.34339
3236.26693	1.34109
3234.33829	1.33823
3232.40964	1.33435
3230.48100	1.32940
3228.55235	1.32369
3226.62371	1.31755
3224.69506	1.31119
3222.76642	1.30463
3220.83777	1.29786
3218.90913	1.29095
3216.98048	1.28409
3215.05184	1.27755
3213.12319	1.27148
3211.19455	1.26579
3209.26590	1.26014
3207.33725	1.25424
3205.40861	1.24805
3203.47996	1.24188
3201.55132	1.23625
3199.62267	1.23168
3197.69403	1.22836
3195.76538	1.22598
3193.83674	1.22381
3191.90809	1.22097
3189.97945	1.21676
3188.05080	1.21093
3186.12216	1.20371
3184.19351	1.19572
3182.26486	1.18773
3180.33622	1.18037
3178.40757	1.17388
3176.47893	1.16806
3174.55028	1.16248
3172.62164	1.15675
3170.69299	1.15062
3168.76435	1.14403
3166.83570	1.13706
3164.90706	1.12993
3162.97841	1.12281
3161.04977	1.11578
3159.12112	1.10885
3157.19247	1.10193
3155.26383	1.09489
3153.33518	1.08751
3151.40654	1.07967
3149.47789	1.07148
3147.54925	1.06329
3145.62060	1.05560
3143.69196	1.04885
3141.76331	1.04328
3139.83467	1.03883
3137.90602	1.03522
3135.97738	1.03200
3134.04873	1.02864
3132.12008	1.02463
3130.19144	1.01964
3128.26279	1.01363
3126.33415	1.00693
3124.40550	1.00020
3122.47686	0.99422
3120.54821	0.98961
3118.61957	0.98639
3116.69092	0.98398
3114.76228	0.98144
3112.83363	0.97784
3110.90499	0.97267
3108.97634	0.96595
3107.04769	0.95827
3105.11905	0.95048
3103.19040	0.94338
3101.26176	0.93748
3099.33311	0.93296
3097.40447	0.92964
3095.47582	0.92704
3093.54718	0.92446
3091.61853	0.92127
3089.68989	0.91715
3087.76124	0.91218
3085.83260	0.90683
3083.90395	0.90177
3081.97531	0.89754
3080.04666	0.89430
3078.11801	0.89168
3076.18937	0.88903
3074.26072	0.88577
3072.33208	0.88159
3070.40343	0.87653
3068.47479	0.87089
3066.54614	0.86508
3064.61750	0.85933
3062.68885	0.85367
3060.76021	0.84801
3058.83156	0.84228
3056.90292	0.83646
3054.97427	0.83061
3053.04562	0.82479
3051.11698	0.81908
3049.18833	0.81353
3047.25969	0.80816
3045.33104	0.80315
3043.40240	0.79874
3041.47375	0.79520
3039.54511	0.79262
3037.61646	0.79078
3035.68782	0.78910
3033.75917	0.78682
3031.83053	0.78332
3029.90188	0.77837
3027.97323	0.77225
3026.04459	0.76560
3024.11594	0.75921
3022.18730	0.75373
3020.25865	0.74949
3018.33001	0.74654
3016.40136	0.74471
3014.47272	0.74364
3012.54407	0.74271
3010.61543	0.74116
3008.68678	0.73842
3006.75814	0.73438
3004.82949	0.72949
3002.90084	0.72464
3000.97220	0.72078
2999.04355	0.71854
2997.11491	0.71799
2995.18626	0.71880
2993.25762	0.72060
2991.32897	0.72303
2989.40033	0.72575
2987.47168	0.72837
2985.54304	0.73046
2983.61439	0.73173
2981.68575	0.73240
2979.75710	0.73323
2977.82845	0.73509
2975.89981	0.73832
2973.97116	0.74269
2972.04252	0.74762
2970.11387	0.75257
2968.18523	0.75741
2966.25658	0.76246
2964.32794	0.76796
2962.39929	0.77350
2960.47065	0.77800
2958.54200	0.78041
2956.61336	0.78045
2954.68471	0.77886
2952.75607	0.77704
2950.82742	0.77640
2948.89877	0.77762
2946.97013	0.78055
2945.04148	0.78470
2943.11284	0.78975
2941.18419	0.79584
2939.25555	0.80344
2937.32690	0.81283
2935.39826	0.82353
2933.46961	0.83438
2931.54097	0.84411
2929.61232	0.85182
2927.68368	0.85704
2925.75503	0.85961
2923.82638	0.85948
2921.89774	0.85631
2919.96909	0.84931
2918.04045	0.83781
2916.11180	0.82202
2914.18316	0.80311
2912.25451	0.78282
2910.32587	0.76303
2908.39722	0.74522
2906.46858	0.73002
2904.53993	0.71712
2902.61129	0.70592
2900.68264	0.69601
2898.75399	0.68728
2896.82535	0.67985
2894.89670	0.67398
2892.96806	0.66978
2891.03941	0.66687
2889.11077	0.66451
2887.18212	0.66200
2885.25348	0.65897
2883.32483	0.65543
2881.39619	0.65180
2879.46754	0.64874
2877.53890	0.64677
2875.61025	0.64591
2873.68160	0.64579
2871.75296	0.64584
2869.82431	0.64552
2867.89567	0.64452
2865.96702	0.64305
2864.03838	0.64192
2862.10973	0.64235
2860.18109	0.64525
2858.25244	0.65049
2856.32380	0.65658
2854.39515	0.66097
2852.46651	0.66084
2850.53786	0.65439
2848.60922	0.64175
2846.68057	0.62503
2844.75192	0.60717
2842.82328	0.59073
2840.89463	0.57717
2838.96599	0.56675
2837.03734	0.55880
2835.10870	0.55236
2833.18005	0.54669
2831.25141	0.54138
2829.32276	0.53602
2827.39412	0.53033
2825.46547	0.52434
2823.53683	0.51843
2821.60818	0.51309
2819.67953	0.50865
2817.75089	0.50524
2815.82224	0.50263
2813.89360	0.50029
2811.96495	0.49763
2810.03631	0.49437
2808.10766	0.49061
2806.17902	0.48660
2804.25037	0.48264
2802.32173	0.47908
2800.39308	0.47628
2798.46444	0.47429
2796.53579	0.47288
2794.60714	0.47178
2792.67850	0.47066
2790.74985	0.46915
2788.82121	0.46715
2786.89256	0.46501
2784.96392	0.46329
2783.03527	0.46227
2781.10663	0.46196
2779.17798	0.46206
2777.24934	0.46198
2775.32069	0.46104
2773.39205	0.45896
2771.46340	0.45612
2769.53475	0.45323
2767.60611	0.45083
2765.67746	0.44912
2763.74882	0.44789
2761.82017	0.44664
2759.89153	0.44485
2757.96288	0.44233
2756.03424	0.43943
2754.10559	0.43683
2752.17695	0.43507
2750.24830	0.43425
2748.31966	0.43406
2746.39101	0.43395
2744.46236	0.43332
2742.53372	0.43178
2740.60507	0.42939
2738.67643	0.42652
2736.74778	0.42366
2734.81914	0.42129
2732.89049	0.41972
2730.96185	0.41890
2729.03320	0.41846
2727.10456	0.41791
2725.17591	0.41689
2723.24727	0.41523
2721.31862	0.41316
2719.38998	0.41127
2717.46133	0.41018
2715.53268	0.41000
2713.60404	0.41029
2711.67539	0.41041
2709.74675	0.40972
2707.81810	0.40790
2705.88946	0.40515
2703.96081	0.40218
2702.03217	0.39973
2700.10352	0.39816
2698.17488	0.39738
2696.24623	0.39699
2694.31759	0.39641
2692.38894	0.39519
2690.46029	0.39329
2688.53165	0.39097
2686.60300	0.38856
2684.67436	0.38628
2682.74571	0.38425
2680.81707	0.38255
2678.88842	0.38119
2676.95978	0.38014
2675.03113	0.37935
2673.10249	0.37863
2671.17384	0.37762
2669.24520	0.37592
2667.31655	0.37335
2665.38790	0.37011
2663.45926	0.36659
2661.53061	0.36316
2659.60197	0.36011
2657.67332	0.35762
2655.74468	0.35587
2653.81603	0.35491
2651.88739	0.35467
2649.95874	0.35495
2648.03010	0.35547
2646.10145	0.35587
2644.17281	0.35589
2642.24416	0.35550
2640.31551	0.35475
2638.38687	0.35362
2636.45822	0.35205
2634.52958	0.35019
2632.60093	0.34844
2630.67229	0.34706
2628.74364	0.34604
2626.81500	0.34504
2624.88635	0.34342
2622.95771	0.34057
2621.02906	0.33652
2619.10042	0.33208
2617.17177	0.32839
2615.24312	0.32626
2613.31448	0.32590
2611.38583	0.32678
2609.45719	0.32777
2607.52854	0.32769
2605.59990	0.32597
2603.67125	0.32290
2601.74261	0.31936
2599.81396	0.31649
2597.88532	0.31529
2595.95667	0.31601
2594.02803	0.31774
2592.09938	0.31895
2590.17074	0.31850
2588.24209	0.31626
2586.31344	0.31298
2584.38480	0.30987
2582.45615	0.30798
2580.52751	0.30758
2578.59886	0.30780
2576.67022	0.30743
2574.74157	0.30600
2572.81293	0.30402
2570.88428	0.30248
2568.95564	0.30228
2567.02699	0.30382
2565.09835	0.30675
2563.16970	0.30992
2561.24105	0.31188
2559.31241	0.31159
2557.38376	0.30886
2555.45512	0.30430
2553.52647	0.29897
2551.59783	0.29404
2549.66918	0.29067
2547.74054	0.28944
2545.81189	0.29016
2543.88325	0.29226
2541.95460	0.29538
2540.02596	0.29915
2538.09731	0.30298
2536.16866	0.30630
2534.24002	0.30878
2532.31137	0.31011
2530.38273	0.30981
2528.45408	0.30768
2526.52544	0.30394
2524.59679	0.29891
2522.66815	0.29299
2520.73950	0.28718
2518.81086	0.28286
2516.88221	0.28093
2514.95357	0.28137
2513.02492	0.28345
2511.09627	0.28611
2509.16763	0.28805
2507.23898	0.28844
2505.31034	0.28752
2503.38169	0.28638
2501.45305	0.28595
2499.52440	0.28654
2497.59576	0.28802
2495.66711	0.28997
2493.73847	0.29164
2491.80982	0.29228
2489.88118	0.29184
2487.95253	0.29091
2486.02389	0.29007
2484.09524	0.28955
2482.16659	0.28958
2480.23795	0.29035
2478.30930	0.29153
2476.38066	0.29257
2474.45201	0.29330
2472.52337	0.29396
2470.59472	0.29464
2468.66608	0.29518
2466.73743	0.29541
2464.80879	0.29506
2462.88014	0.29371
2460.95150	0.29142
2459.02285	0.28901
2457.09420	0.28754
2455.16556	0.28765
2453.23691	0.28918
2451.30827	0.29110
2449.37962	0.29203
2447.45098	0.29124
2445.52233	0.28921
2443.59369	0.28720
2441.66504	0.28637
2439.73640	0.28727
2437.80775	0.28961
2435.87911	0.29238
2433.95046	0.29445
2432.02181	0.29517
2430.09317	0.29454
2428.16452	0.29289
2426.23588	0.29059
2424.30723	0.28786
2422.37859	0.28489
2420.44994	0.28198
2418.52130	0.27951
2416.59265	0.27774
2414.66401	0.27678
2412.73536	0.27672
2410.80672	0.27741
2408.87807	0.27836
2406.94942	0.27904
2405.02078	0.27937
2403.09213	0.27956
2401.16349	0.27982
2399.23484	0.28031
2397.30620	0.28111
2395.37755	0.28208
2393.44891	0.28275
2391.52026	0.28262
2389.59162	0.28143
2387.66297	0.27927
2385.73433	0.27656
2383.80568	0.27417
2381.87703	0.27318
2379.94839	0.27450
2378.01974	0.27833
2376.09110	0.28392
2374.16245	0.28964
2372.23381	0.29331
2370.30516	0.29297
2368.37652	0.28777
2366.44787	0.27852
2364.51923	0.26763
2362.59058	0.25817
2360.66194	0.25274
2358.73329	0.25252
2356.80465	0.25694
2354.87600	0.26392
2352.94735	0.27100
2351.01871	0.27645
2349.09006	0.27965
2347.16142	0.28070
2345.23277	0.27987
2343.30413	0.27767
2341.37548	0.27483
2339.44684	0.27219
2337.51819	0.27080
2335.58955	0.27158
2333.66090	0.27485
2331.73226	0.27982
2329.80361	0.28485
2327.87496	0.28824
2325.94632	0.28886
2324.01767	0.28641
2322.08903	0.28148
2320.16038	0.27538
2318.23174	0.26965
2316.30309	0.26572
2314.37445	0.26454
2312.44580	0.26633
2310.51716	0.27023
2308.58851	0.27448
2306.65987	0.27710
2304.73122	0.27673
2302.80257	0.27320
2300.87393	0.26757
2298.94528	0.26176
2297.01664	0.25779
2295.08799	0.25670
2293.15935	0.25817
2291.23070	0.26071
2289.30206	0.26256
2287.37341	0.26239
2285.44477	0.25983
2283.51612	0.25568
2281.58748	0.25158
2279.65883	0.24905
2277.73018	0.24871
2275.80154	0.25010
2273.87289	0.25219
2271.94425	0.25395
2270.01560	0.25494
2268.08696	0.25526
2266.15831	0.25533
2264.22967	0.25522
2262.30102	0.25452
2260.37238	0.25264
2258.44373	0.24913
2256.51509	0.24392
2254.58644	0.23754
2252.65779	0.23110
2250.72915	0.22571
2248.80050	0.22183
2246.87186	0.21915
2244.94321	0.21703
2243.01457	0.21477
2241.08592	0.21172
2239.15728	0.20771
2237.22863	0.20316
2235.29999	0.19877
2233.37134	0.19507
2231.44270	0.19213
2229.51405	0.19004
2227.58541	0.18911
2225.65676	0.18943
2223.72811	0.18975
2221.79947	0.18747
2219.87082	0.18066
2217.94218	0.17002
2216.01353	0.15897
2214.08489	0.15260
2212.15624	0.15634
2210.22760	0.17299
2208.29895	0.19901
2206.37031	0.22464
2204.44166	0.23975
2202.51302	0.23919
2200.58437	0.22349
2198.65572	0.19741
2196.72708	0.16907
2194.79843	0.14702
2192.86979	0.13505
2190.94114	0.13121
2189.01250	0.13222
2187.08385	0.13600
2185.15521	0.14041
2183.22656	0.14304
2181.29792	0.14350
2179.36927	0.14326
2177.44063	0.14265
2175.51198	0.14002
2173.58333	0.13318
2171.65469	0.12011
2169.72604	0.09921
2167.79740	0.07092
2165.86875	0.03959
2163.94011	0.01321
2162.01146	0.00000
2160.08282	0.00386
2158.15417	0.02220
2156.22553	0.04798
2154.29688	0.07366
2152.36824	0.09379
2150.43959	0.10684
2148.51094	0.11614
2146.58230	0.12692
2144.65365	0.14103
2142.72501	0.15528
2140.79636	0.16499
2138.86772	0.16783
2136.93907	0.16445
2135.01043	0.15829
2133.08178	0.15458
2131.15314	0.15734
2129.22449	0.16668
2127.29585	0.17918
2125.36720	0.19058
2123.43856	0.19788
2121.50991	0.20024
2119.58126	0.19892
2117.65262	0.19618
2115.72397	0.19369
2113.79533	0.19203
2111.86668	0.19091
2109.93804	0.18966
2108.00939	0.18791
2106.08075	0.18620
2104.15210	0.18585
2102.22346	0.18795
2100.29481	0.19252
2098.36617	0.19840
2096.43752	0.20349
2094.50887	0.20552
2092.58023	0.20293
2090.65158	0.19561
2088.72294	0.18502
2086.79429	0.17362
2084.86565	0.16405
2082.93700	0.15819
2081.00836	0.15670
2079.07971	0.15914
2077.15107	0.16422
2075.22242	0.17020
2073.29378	0.17535
2071.36513	0.17845
2069.43648	0.17898
2067.50784	0.17720
2065.57919	0.17407
2063.65055	0.17080
2061.72190	0.16827
2059.79326	0.16675
2057.86461	0.16587
2055.93597	0.16485
2054.00732	0.16297
2052.07868	0.16007
2050.15003	0.15652
2048.22139	0.15267
2046.29274	0.14842
2044.36409	0.14330
2042.43545	0.13667
2040.50680	0.12815
2038.57816	0.11839
2036.64951	0.10960
2034.72087	0.10482
2032.79222	0.10610
2030.86358	0.11315
2028.93493	0.12339
2027.00629	0.13322
2025.07764	0.14002
2023.14900	0.14380
2021.22035	0.14739
2019.29170	0.15458
2017.36306	0.16736
2015.43441	0.18412
2013.50577	0.19986
2011.57712	0.20844
2009.64848	0.20559
2007.71983	0.19126
2005.79119	0.16991
2003.86254	0.14848
2001.93390	0.13293
2000.00525	0.12644
1998.07661	0.12845
1996.14796	0.13560
1994.21932	0.14401
1992.29067	0.15133
1990.36202	0.15722
1988.43338	0.16212
1986.50473	0.16570
1984.57609	0.16644
1982.64744	0.16301
1980.71880	0.15587
1978.79015	0.14781
1976.86151	0.14296
1974.93286	0.14455
1973.00422	0.15305
1971.07557	0.16602
1969.14693	0.17989
1967.21828	0.19225
1965.28963	0.20291
1963.36099	0.21308
1961.43234	0.22329
1959.50370	0.23204
1957.57505	0.23646
1955.64641	0.23434
1953.71776	0.22579
1951.78912	0.21332
1949.86047	0.20052
1947.93183	0.19038
1946.00318	0.18405
1944.07454	0.18094
1942.14589	0.17963
1940.21724	0.17902
1938.28860	0.17887
1936.35995	0.17953
1934.43131	0.18125
1932.50266	0.18381
1930.57402	0.18653
1928.64537	0.18847
1926.71673	0.18868
1924.78808	0.18669
1922.85944	0.18297
1920.93079	0.17885
1919.00215	0.17583
1917.07350	0.17492
1915.14485	0.17634
1913.21621	0.17951
1911.28756	0.18331
1909.35892	0.18672
1907.43027	0.18920
1905.50163	0.19069
1903.57298	0.19134
1901.64434	0.19132
1899.71569	0.19069
1897.78705	0.18948
1895.85840	0.18778
1893.92976	0.18586
1892.00111	0.18422
1890.07246	0.18338
1888.14382	0.18362
1886.21517	0.18491
1884.28653	0.18695
1882.35788	0.18934
1880.42924	0.19180
1878.50059	0.19435
1876.57195	0.19713
1874.64330	0.20018
1872.71466	0.20322
1870.78601	0.20570
1868.85737	0.20697
1866.92872	0.20652
1865.00008	0.20429
1863.07143	0.20083
1861.14278	0.19709
1859.21414	0.19408
1857.28549	0.19249
1855.35685	0.19252
1853.42820	0.19383
1851.49956	0.19583
1849.57091	0.19795
1847.64227	0.19989
1845.71362	0.20157
1843.78498	0.20295
1841.85633	0.20379
1839.92769	0.20368
1837.99904	0.20225
1836.07039	0.19950
1834.14175	0.19593
1832.21310	0.19247
1830.28446	0.19010
1828.35581	0.18938
1826.42717	0.19013
1824.49852	0.19160
1822.56988	0.19285
1820.64123	0.19326
1818.71259	0.19280
1816.78394	0.19200
1814.85530	0.19161
1812.92665	0.19210
1810.99800	0.19344
1809.06936	0.19517
1807.14071	0.19672
1805.21207	0.19765
1803.28342	0.19784
1801.35478	0.19741
1799.42613	0.19667
1797.49749	0.19588
1795.56884	0.19519
1793.64020	0.19476
1791.71155	0.19469
1789.78291	0.19503
1787.85426	0.19577
1785.92561	0.19688
1783.99697	0.19826
1782.06832	0.19980
1780.13968	0.20142
1778.21103	0.20306
1776.28239	0.20471
1774.35374	0.20633
1772.42510	0.20800
1770.49645	0.20985
1768.56781	0.21216
1766.63916	0.21519
1764.71052	0.21913
1762.78187	0.22402
1760.85322	0.22971
1758.92458	0.23602
1756.99593	0.24289
1755.06729	0.25046
1753.13864	0.25906
1751.21000	0.26895
1749.28135	0.28006
1747.35271	0.29170
1745.42406	0.30266
1743.49542	0.31164
1741.56677	0.31779
1739.63813	0.32114
1737.70948	0.32266
1735.78084	0.32391
1733.85219	0.32640
1731.92354	0.33089
1729.99490	0.33708
1728.06625	0.34386
1726.13761	0.35003
1724.20896	0.35486
1722.28032	0.35845
1720.35167	0.36164
1718.42303	0.36551
1716.49438	0.37078
1714.56574	0.37747
1712.63709	0.38494
1710.70845	0.39233
1708.77980	0.39905
1706.85115	0.40519
1704.92251	0.41157
1702.99386	0.41950
1701.06522	0.43034
1699.13657	0.44495
1697.20793	0.46326
1695.27928	0.48427
1693.35064	0.50652
1691.42199	0.52869
1689.49335	0.55016
1687.56470	0.57112
1685.63606	0.59242
1683.70741	0.61488
1681.77876	0.63879
1679.85012	0.66369
1677.92147	0.68870
1675.99283	0.71304
1674.06418	0.73635
1672.13554	0.75884
1670.20689	0.78104
1668.27825	0.80341
1666.34960	0.82586
1664.42096	0.84762
1662.49231	0.86752
1660.56367	0.88451
1658.63502	0.89802
1656.70637	0.90824
1654.77773	0.91612
1652.84908	0.92304
1650.92044	0.93011
1648.99179	0.93770
1647.06315	0.94537
1645.13450	0.95213
1643.20586	0.95694
1641.27721	0.95908
1639.34857	0.95851
1637.41992	0.95577
1635.49128	0.95158
1633.56263	0.94638
1631.63399	0.94022
1629.70534	0.93283
1627.77669	0.92396
1625.84805	0.91361
1623.91940	0.90227
1621.99076	0.89077
1620.06211	0.88006
1618.13347	0.87088
1616.20482	0.86359
1614.27618	0.85807
1612.34753	0.85388
1610.41889	0.85048
1608.49024	0.84741
1606.56160	0.84435
1604.63295	0.84112
1602.70430	0.83762
1600.77566	0.83374
1598.84701	0.82934
1596.91837	0.82418
1594.98972	0.81810
1593.06108	0.81103
1591.13243	0.80298
1589.20379	0.79398
1587.27514	0.78407
1585.34650	0.77336
1583.41785	0.76208
1581.48921	0.75060
1579.56056	0.73943
1577.63191	0.72915
1575.70327	0.72018
1573.77462	0.71257
1571.84598	0.70578
1569.91733	0.69889
1567.98869	0.69101
1566.06004	0.68175
1564.13140	0.67147
1562.20275	0.66137
1560.27411	0.65298
1558.34546	0.64738
1556.41682	0.64449
1554.48817	0.64293
1552.55952	0.64056
1550.63088	0.63528
1548.70223	0.62596
1546.77359	0.61284
1544.84494	0.59741
1542.91630	0.58176
1540.98765	0.56778
1539.05901	0.55652
1537.13036	0.54799
1535.20172	0.54132
1533.27307	0.53530
1531.34443	0.52891
1529.41578	0.52171
1527.48713	0.51398
1525.55849	0.50654
1523.62984	0.50023
1521.70120	0.49533
1519.77255	0.49120
1517.84391	0.48646
1515.91526	0.47952
1513.98662	0.46935
1512.05797	0.45601
1510.12933	0.44066
1508.20068	0.42515
1506.27204	0.41117
1504.34339	0.39964
1502.41475	0.39042
1500.48610	0.38269
1498.55745	0.37556
1496.62881	0.36850
1494.70016	0.36150
1492.77152	0.35502
1490.84287	0.34962
1488.91423	0.34576
1486.98558	0.34353
1485.05694	0.34282
1483.12829	0.34353
1481.19965	0.34577
1479.27100	0.34993
1477.34236	0.35657
1475.41371	0.36612
1473.48506	0.37851
1471.55642	0.39291
1469.62777	0.40772
1467.69913	0.42099
1465.77048	0.43115
1463.84184	0.43756
1461.91319	0.44062
1459.98455	0.44153
1458.05590	0.44164
1456.12726	0.44195
1454.19861	0.44264
1452.26997	0.44324
1450.34132	0.44312
1448.41267	0.44185
1446.48403	0.43942
1444.55538	0.43619
1442.62674	0.43280
1440.69809	0.42996
1438.76945	0.42838
1436.84080	0.42871
1434.91216	0.43143
1432.98351	0.43674
1431.05487	0.44436
1429.12622	0.45361
1427.19758	0.46355
1425.26893	0.47332
1423.34028	0.48239
1421.41164	0.49072
1419.48299	0.49866
1417.55435	0.50655
1415.62570	0.51454
1413.69706	0.52246
1411.76841	0.52994
1409.83977	0.53659
1407.91112	0.54212
1405.98248	0.54645
1404.05383	0.54969
1402.12519	0.55196
1400.19654	0.55337
1398.26789	0.55400
1396.33925	0.55391
1394.41060	0.55316
1392.48196	0.55178
1390.55331	0.54986
1388.62467	0.54752
1386.69602	0.54489
1384.76738	0.54203
1382.83873	0.53893
1380.91009	0.53546
1378.98144	0.53148
1377.05280	0.52688
1375.12415	0.52167
1373.19551	0.51593
1371.26686	0.50983
1369.33821	0.50347
1367.40957	0.49694
1365.48092	0.49033
1363.55228	0.48377
1361.62363	0.47740
1359.69499	0.47139
1357.76634	0.46584
1355.83770	0.46073
1353.90905	0.45597
1351.98041	0.45138
1350.05176	0.44676
1348.12312	0.44198
1346.19447	0.43704
1344.26582	0.43209
1342.33718	0.42739
1340.40853	0.42318
1338.47989	0.41958
1336.55124	0.41651
1334.62260	0.41377
1332.69395	0.41110
1330.76531	0.40840
1328.83666	0.40574
1326.90802	0.40332
1324.97937	0.40131
1323.05073	0.39974
1321.12208	0.39843
1319.19343	0.39710
1317.26479	0.39552
1315.33614	0.39367
1313.40750	0.39179
1311.47885	0.39023
1309.55021	0.38925
1307.62156	0.38894
1305.69292	0.38914
1303.76427	0.38957
1301.83563	0.39000
1299.90698	0.39034
1297.97834	0.39074
1296.04969	0.39139
1294.12104	0.39250
1292.19240	0.39416
1290.26375	0.39643
1288.33511	0.39935
1286.40646	0.40296
1284.47782	0.40730
1282.54917	0.41230
1280.62053	0.41768
1278.69188	0.42300
1276.76324	0.42787
1274.83459	0.43203
1272.90595	0.43555
1270.97730	0.43871
1269.04866	0.44188
1267.12001	0.44527
1265.19136	0.44882
1263.26272	0.45229
1261.33407	0.45542
1259.40543	0.45805
1257.47678	0.46024
1255.54814	0.46224
1253.61949	0.46438
1251.69085	0.46697
1249.76220	0.47018
1247.83356	0.47399
1245.90491	0.47818
1243.97627	0.48239
1242.04762	0.48628
1240.11897	0.48961
1238.19033	0.49240
1236.26168	0.49491
1234.33304	0.49752
1232.40439	0.50053
1230.47575	0.50398
1228.54710	0.50771
1226.61846	0.51140
1224.68981	0.51470
1222.76117	0.51741
1220.83252	0.51955
1218.90388	0.52128
1216.97523	0.52284
1215.04658	0.52442
1213.11794	0.52613
1211.18929	0.52795
1209.26065	0.52981
1207.33200	0.53172
1205.40336	0.53387
1203.47471	0.53655
1201.54607	0.54009
1199.61742	0.54474
1197.68878	0.55067
1195.76013	0.55803
1193.83149	0.56687
1191.90284	0.57714
1189.97419	0.58875
1188.04555	0.60164
1186.11690	0.61576
1184.18826	0.63121
1182.25961	0.64830
1180.33097	0.66763
1178.40232	0.68960
1176.47368	0.71411
1174.54503	0.74058
1172.61639	0.76820
1170.68774	0.79610
1168.75910	0.82328
1166.83045	0.84872
1164.90180	0.87171
1162.97316	0.89204
1161.04451	0.90997
1159.11587	0.92634
1157.18722	0.94255
1155.25858	0.96000
1153.32993	0.97944
1151.40129	1.00074
1149.47264	1.02336
1147.54400	1.04696
1145.61535	1.07169
1143.68671	1.09815
1141.75806	1.12698
1139.82942	1.15843
1137.90077	1.19207
1135.97212	1.22695
1134.04348	1.26190
1132.11483	1.29601
1130.18619	1.32892
1128.25754	1.36067
1126.32890	1.39133
1124.40025	1.42095
1122.47161	1.44946
1120.54296	1.47676
1118.61432	1.50280
1116.68567	1.52775
1114.75703	1.55206
1112.82838	1.57639
1110.89973	1.60132
1108.97109	1.62714
1107.04244	1.65378
1105.11380	1.68109
1103.18515	1.70901
1101.25651	1.73749
1099.32786	1.76654
1097.39922	1.79624
1095.47057	1.82646
1093.54193	1.85659
1091.61328	1.88578
1089.68464	1.91326
1087.75599	1.93828
1085.82734	1.95985
1083.89870	1.97708
1081.97005	1.98949
1080.04141	1.99707
1078.11276	2.00000
1076.18412	1.99858
1074.25547	1.99312
1072.32683	1.98384
1070.39818	1.97083
1068.46954	1.95428
1066.54089	1.93489
1064.61225	1.91377
1062.68360	1.89195
1060.75495	1.86990
1058.82631	1.84762
1056.89766	1.82493
1054.96902	1.80175
1053.04037	1.77838
1051.11173	1.75561
1049.18308	1.73443
1047.25444	1.71564
1045.32579	1.69956
1043.39715	1.68606
1041.46850	1.67460
1039.53986	1.66447
1037.61121	1.65477
1035.68256	1.64439
1033.75392	1.63198
1031.82527	1.61649
1029.89663	1.59742
1027.96798	1.57501
1026.03934	1.55012
1024.11069	1.52395
1022.18205	1.49755
1020.25340	1.47149
1018.32476	1.44591
1016.39611	1.42091
1014.46747	1.39659
1012.53882	1.37317
1010.61018	1.35099
1008.68153	1.33045
1006.75288	1.31179
1004.82424	1.29506
1002.89559	1.28029
1000.96695	1.26758
999.03830	1.25707
997.10966	1.24886
995.18101	1.24301
993.25237	1.23954
991.32372	1.23804
989.39508	1.23735
987.46643	1.23576
985.53779	1.23149
983.60914	1.22283
981.68049	1.20843
979.75185	1.18760
977.82320	1.16066
975.89456	1.12861
973.96591	1.09298
972.03727	1.05582
970.10862	1.01934
968.17998	0.98495
966.25133	0.95283
964.32269	0.92222
962.39404	0.89197
960.46540	0.86127
958.53675	0.83035
956.60810	0.80064
954.67946	0.77411
952.75081	0.75214
950.82217	0.73476
948.89352	0.72082
946.96488	0.70856
945.03623	0.69640
943.10759	0.68353
941.17894	0.67026
939.25030	0.65769
937.32165	0.64683
935.39301	0.63789
933.46436	0.63046
931.53571	0.62405
929.60707	0.61821
927.67842	0.61261
925.74978	0.60736
923.82113	0.60283
921.89249	0.59905
919.96384	0.59571
918.03520	0.59266
916.10655	0.58997
914.17791	0.58755
912.24926	0.58503
910.32062	0.58192
908.39197	0.57765
906.46333	0.57170
904.53468	0.56412
902.60603	0.55587
900.67739	0.54818
898.74874	0.54190
896.82010	0.53741
894.89145	0.53447
892.96281	0.53219
891.03416	0.52947
889.10552	0.52585
887.17687	0.52164
885.24823	0.51729
883.31958	0.51309
881.39094	0.50932
879.46229	0.50615
877.53364	0.50358
875.60500	0.50159
873.67635	0.50017
871.74771	0.49897
869.81906	0.49702
867.89042	0.49309
865.96177	0.48643
864.03313	0.47706
862.10448	0.46577
860.17584	0.45399
858.24719	0.44336
856.31855	0.43523
854.38990	0.43045
852.46125	0.42926
850.53261	0.43115
848.60396	0.43476
846.67532	0.43810
844.74667	0.43942
842.81803	0.43792
840.88938	0.43391
838.96074	0.42849
837.03209	0.42306
835.10345	0.41882
833.17480	0.41626
831.24616	0.41515
829.31751	0.41496
827.38886	0.41510
825.46022	0.41487
823.53157	0.41358
821.60293	0.41110
819.67428	0.40819
817.74564	0.40609
815.81699	0.40604
813.88835	0.40922
811.95970	0.41662
810.03106	0.42871
808.10241	0.44530
806.17377	0.46577
804.24512	0.48889
802.31647	0.51229
800.38783	0.53261
798.45918	0.54678
796.53054	0.55328
794.60189	0.55244
792.67325	0.54609
790.74460	0.53719
788.81596	0.52924
786.88731	0.52509
784.95867	0.52587
783.03002	0.53075
781.10138	0.53758
779.17273	0.54370
777.24409	0.54667
775.31544	0.54517
773.38679	0.53950
771.45815	0.53128
769.52950	0.52246
767.60086	0.51434
765.67221	0.50724
763.74357	0.50071
761.81492	0.49422
759.88628	0.48744
757.95763	0.48054
756.02899	0.47445
754.10034	0.47066
752.17170	0.47030
750.24305	0.47313
748.31440	0.47738
746.38576	0.48057
744.45711	0.48065
742.52847	0.47699
740.59982	0.47090
738.67118	0.46492
736.74253	0.46112
734.81389	0.45993
732.88524	0.46013
730.95660	0.45987
729.02795	0.45790
727.09931	0.45442
725.17066	0.45103
723.24201	0.44967
721.31337	0.45122
719.38472	0.45530
717.45608	0.46074
715.52743	0.46624
713.59879	0.47095
711.67014	0.47463
709.74150	0.47764
707.81285	0.48060
705.88421	0.48402
703.95556	0.48822
702.02692	0.49323
700.09827	0.49872
698.16962	0.50396
696.24098	0.50800
694.31233	0.51001
692.38369	0.50970
690.45504	0.50742
688.52640	0.50390
686.59775	0.49981
684.66911	0.49552
682.74046	0.49117
680.81182	0.48717
678.88317	0.48433
676.95453	0.48348
675.02588	0.48485
673.09723	0.48785
671.16859	0.49113
669.23994	0.49299
667.31130	0.49217
665.38265	0.48870
663.45401	0.48387
661.52536	0.47920
659.59672	0.47577
657.66807	0.47409
655.73943	0.47416
653.81078	0.47553
651.88214	0.47751
649.95349	0.47955
648.02485	0.48135
646.09620	0.48265
644.16755	0.48357
642.23891	0.48486
640.31026	0.48805
638.38162	0.49493
636.45297	0.50670
634.52433	0.52279
632.59568	0.53987
630.66704	0.55215
628.73839	0.55378
626.80975	0.54185
624.88110	0.51769
622.95246	0.48558
621.02381	0.45023
619.09516	0.41435
617.16652	0.37775
615.23787	0.33955
613.30923	0.30228
611.38058	0.27396
609.45194	0.26556
607.52329	0.28512
605.59465	0.33288
603.66600	0.40001
601.73736	0.47159
599.80871	0.53281
597.88007	0.57478
595.95142	0.59680
594.02277	0.60456
592.09413	0.60599
590.16548	0.60737
588.23684	0.61150
586.30819	0.61805
584.37955	0.62535
582.45090	0.63205
580.52226	0.63786
578.59361	0.64360
576.66497	0.65081
574.73632	0.66083
572.80768	0.67422
570.87903	0.69074
568.95038	0.70951
567.02174	0.72917
565.09309	0.74810
563.16445	0.76503
561.23580	0.77943
559.30716	0.79152
557.37851	0.80211
555.44987	0.81246
553.52122	0.82382
551.59258	0.83701
549.66393	0.85241
547.73529	0.87030
545.80664	0.89090
543.87800	0.91410
541.94935	0.93918
540.02070	0.96461
538.09206	0.98816
536.16341	1.00741
534.23477	1.02052
532.30612	1.02673
530.37748	1.02642
528.44883	1.02103
526.52019	1.01241
524.59154	1.00203
522.66290	0.99052
520.73425	0.97788
518.80561	0.96386
516.87696	0.94823
514.94831	0.93109
513.01967	0.91309
511.09102	0.89521
509.16238	0.87818
507.23373	0.86237
505.30509	0.84791
503.37644	0.83504
501.44780	0.82428
499.51915	0.81645
497.59051	0.81244
495.66186	0.81300
493.73322	0.81876
491.80457	0.83042
489.87592	0.84875
487.94728	0.87430
486.01863	0.90718
484.08999	0.94657
482.16134	0.99050
480.23270	1.03590
478.30405	1.07935
476.37541	1.11787
474.44676	1.14928
472.51812	1.17232
470.58947	1.18669
468.66083	1.19289
466.73218	1.19178
464.80353	1.18404
462.87489	1.17021
460.94624	1.15078
459.01760	1.12659
457.08895	1.09896
455.16031	1.06968
453.23166	1.04066
451.30302	1.01339
449.37437	0.98846
447.44573	0.96541
445.51708	0.94300
443.58844	0.92002
441.65979	0.89585
439.73114	0.87082
437.80250	0.84598
435.87385	0.82282
433.94521	0.80253
432.01656	0.78543
430.08792	0.77093
428.15927	0.75799
426.23063	0.74570
424.30198	0.73352
422.37334	0.72140
420.44469	0.70941
418.51605	0.69733
416.58740	0.68441
414.65876	0.66979
412.73011	0.65325
410.80146	0.63587
408.87282	0.62019
406.94417	0.60968
405.01553	0.60725
403.08688	0.61361
401.15824	0.62636
399.22959	0.64035
397.30095	0.64939
395.37230	0.64842
393.44366	0.63558
391.51501	0.61287
389.58637	0.58526
387.65772	0.55865
385.72907	0.53793
383.80043	0.52567
381.87178	0.52177
379.94314	0.52399
378.01449	0.52909
376.08585	0.53419
374.15720	0.53742
372.22856	0.53795
370.29991	0.53576
368.37127	0.53111
366.44262	0.52406
364.51398	0.51428
362.58533	0.50149
360.65668	0.48604
358.72804	0.46913
356.79939	0.45249
354.87075	0.43784
352.94210	0.42631
351.01346	0.41796
349.08481	0.41177
347.15617	0.40611
345.22752	0.39945
343.29888	0.39081
341.37023	0.37998
339.44159	0.36744
337.51294	0.35393
335.58429	0.33999
333.65565	0.32579
331.72700	0.31131
329.79836	0.29673
327.86971	0.28276
325.94107	0.27045
324.01242	0.26074
322.08378	0.25394
320.15513	0.24950
318.22649	0.24622
316.29784	0.24276
314.36920	0.23812
312.44055	0.23188
310.51190	0.22415
308.58326	0.21539
306.65461	0.20643
304.72597	0.19826
302.79732	0.19174
300.86868	0.18719
298.94003	0.18418
297.01139	0.18184
295.08274	0.17921
293.15410	0.17557
291.22545	0.17073
289.29681	0.16494
287.36816	0.15891
285.43952	0.15341
283.51087	0.14925
281.58222	0.14777
279.65358	0.15017
277.72493	0.15707
275.79629	0.16817
273.86764	0.18233
271.93900	0.19793
270.01035	0.21318
268.08171	0.22666
266.15306	0.23776
264.22442	0.24670
262.29577	0.25413
260.36713	0.26068
258.43848	0.26662
256.50983	0.27149
254.58119	0.27435
252.65254	0.27450
250.72390	0.27221
248.79525	0.26869
246.86661	0.26514
244.93796	0.26187
243.00932	0.25814
241.08067	0.25255
239.15203	0.24385
237.22338	0.23174
235.29474	0.21732
233.36609	0.20277
231.43744	0.19064
229.50880	0.18335
227.58015	0.18281
225.65151	0.18985
223.72286	0.20342
221.79422	0.22042
219.86557	0.23656
217.93693	0.24788
216.00828	0.25210
214.07964	0.24924
212.15099	0.24148
210.22235	0.23220
208.29370	0.22467
206.36505	0.22077
204.43641	0.22051
202.50776	0.22264
200.57912	0.22565
198.65047	0.22871
196.72183	0.23225
194.79318	0.23824
192.86454	0.24995
190.93589	0.27080
189.00725	0.30225
187.07860	0.34207
185.14996	0.38421
183.22131	0.42038
181.29267	0.44265
179.36402	0.44682
177.43537	0.43545
175.50673	0.41793
173.57808	0.40637
171.64944	0.40988
169.72079	0.43065
167.79215	0.46319
165.86350	0.49666
163.93486	0.51964
162.00621	0.52467
160.07757	0.51567
158.14892	0.49968
156.22028	0.48390
154.29163	0.48390
152.36298	0.48390
150.43434	0.48390
148.50569	0.48390
