4497.60101	0.09634
4495.67236	0.09634
4493.74372	0.09634
4491.81507	0.09634
4489.88643	0.09634
4487.95778	0.09599
4486.02914	0.09611
4484.10049	0.09699
4482.17185	0.09891
4480.24320	0.10194
4478.31455	0.10518
4476.38591	0.10780
4474.45726	0.10930
4472.52862	0.10975
4470.59997	0.10955
4468.67133	0.10914
4466.74268	0.10886
4464.81404	0.10866
4462.88539	0.10801
4460.95675	0.10629
4459.02810	0.10329
4457.09946	0.09953
4455.17081	0.09601
4453.24216	0.09363
4451.31352	0.09244
4449.38487	0.09162
4447.45623	0.09029
4445.52758	0.08821
4443.59894	0.08567
4441.67029	0.08321
4439.74165	0.08154
4437.81300	0.08117
4435.88436	0.08186
4433.95571	0.08296
4432.02707	0.08463
4430.09842	0.08812
4428.16978	0.09453
4426.24113	0.10347
4424.31248	0.11304
4422.38384	0.12081
4420.45519	0.12472
4418.52655	0.12391
4416.59790	0.11931
4414.66926	0.11321
4412.74061	0.10795
4410.81197	0.10485
4408.88332	0.10410
4406.95468	0.10515
4405.02603	0.10730
4403.09739	0.10972
4401.16874	0.11132
4399.24009	0.11089
4397.31145	0.10792
4395.38280	0.10304
4393.45416	0.09740
4391.52551	0.09220
4389.59687	0.08844
4387.66822	0.08664
4385.73958	0.08671
4383.81093	0.08846
4381.88229	0.09201
4379.95364	0.09732
4378.02500	0.10346
4376.09635	0.10876
4374.16770	0.11177
4372.23906	0.11185
4370.31041	0.10973
4368.38177	0.10736
4366.45312	0.10668
4364.52448	0.10822
4362.59583	0.11090
4360.66719	0.11304
4358.73854	0.11355
4356.80990	0.11233
4354.88125	0.11013
4352.95261	0.10824
4351.02396	0.10785
4349.09531	0.10915
4347.16667	0.11098
4345.23802	0.11164
4343.30938	0.11010
4341.38073	0.10644
4339.45209	0.10176
4337.52344	0.09787
4335.59480	0.09680
4333.66615	0.09940
4331.73751	0.10456
4329.80886	0.11000
4327.88022	0.11380
4325.95157	0.11519
4324.02292	0.11450
4322.09428	0.11278
4320.16563	0.11085
4318.23699	0.10862
4316.30834	0.10561
4314.37970	0.10214
4312.45105	0.09937
4310.52241	0.09849
4308.59376	0.09998
4306.66512	0.10339
4304.73647	0.10713
4302.80783	0.10914
4300.87918	0.10843
4298.95054	0.10568
4297.02189	0.10232
4295.09324	0.09939
4293.16460	0.09740
4291.23595	0.09640
4289.30731	0.09587
4287.37866	0.09502
4285.45002	0.09341
4283.52137	0.09140
4281.59273	0.08987
4279.66408	0.08985
4277.73544	0.09208
4275.80679	0.09641
4273.87815	0.10169
4271.94950	0.10626
4270.02085	0.10865
4268.09221	0.10833
4266.16356	0.10606
4264.23492	0.10337
4262.30627	0.10124
4260.37763	0.09948
4258.44898	0.09743
4256.52034	0.09492
4254.59169	0.09219
4252.66305	0.08975
4250.73440	0.08845
4248.80576	0.08921
4246.87711	0.09219
4244.94846	0.09649
4243.01982	0.10107
4241.09117	0.10540
4239.16253	0.10899
4237.23388	0.11121
4235.30524	0.11198
4233.37659	0.11198
4231.44795	0.11195
4229.51930	0.11213
4227.59066	0.11255
4225.66201	0.11310
4223.73337	0.11326
4221.80472	0.11250
4219.87607	0.11090
4217.94743	0.10901
4216.01878	0.10735
4214.09014	0.10623
4212.16149	0.10581
4210.23285	0.10592
4208.30420	0.10611
4206.37556	0.10610
4204.44691	0.10592
4202.51827	0.10559
4200.58962	0.10502
4198.66098	0.10422
4196.73233	0.10296
4194.80368	0.10090
4192.87504	0.09814
4190.94639	0.09576
4189.01775	0.09529
4187.08910	0.09783
4185.16046	0.10340
4183.23181	0.11076
4181.30317	0.11750
4179.37452	0.12111
4177.44588	0.12028
4175.51723	0.11528
4173.58859	0.10770
4171.65994	0.09983
4169.73130	0.09368
4167.80265	0.09019
4165.87400	0.08931
4163.94536	0.09060
4162.01671	0.09330
4160.08807	0.09607
4158.15942	0.09773
4156.23078	0.09797
4154.30213	0.09714
4152.37349	0.09543
4150.44484	0.09321
4148.51620	0.09125
4146.58755	0.09004
4144.65891	0.08926
4142.73026	0.08866
4140.80161	0.08871
4138.87297	0.08997
4136.94432	0.09233
4135.01568	0.09521
4133.08703	0.09792
4131.15839	0.09975
4129.22974	0.10018
4127.30110	0.09945
4125.37245	0.09834
4123.44381	0.09727
4121.51516	0.09598
4119.58652	0.09385
4117.65787	0.09041
4115.72922	0.08589
4113.80058	0.08146
4111.87193	0.07886
4109.94329	0.07947
4108.01464	0.08355
4106.08600	0.09011
4104.15735	0.09737
4102.22871	0.10333
4100.30006	0.10649
4098.37142	0.10645
4096.44277	0.10390
4094.51413	0.10016
4092.58548	0.09666
4090.65683	0.09438
4088.72819	0.09353
4086.79954	0.09364
4084.87090	0.09405
4082.94225	0.09436
4081.01361	0.09462
4079.08496	0.09514
4077.15632	0.09625
4075.22767	0.09802
4073.29903	0.10000
4071.37038	0.10135
4069.44174	0.10141
4067.51309	0.10033
4065.58444	0.09905
4063.65580	0.09875
4061.72715	0.10043
4059.79851	0.10451
4057.86986	0.11036
4055.94122	0.11632
4054.01257	0.12043
4052.08393	0.12125
4050.15528	0.11850
4048.22664	0.11309
4046.29799	0.10661
4044.36935	0.10079
4042.44070	0.09688
4040.51206	0.09528
4038.58341	0.09543
4036.65476	0.09624
4034.72612	0.09683
4032.79747	0.09702
4030.86883	0.09716
4028.94018	0.09769
4027.01154	0.09883
4025.08289	0.10054
4023.15425	0.10252
4021.22560	0.10419
4019.29696	0.10490
4017.36831	0.10451
4015.43967	0.10343
4013.51102	0.10230
4011.58237	0.10163
4009.65373	0.10181
4007.72508	0.10306
4005.79644	0.10505
4003.86779	0.10700
4001.93915	0.10822
4000.01050	0.10842
3998.08186	0.10774
3996.15321	0.10654
3994.22457	0.10520
3992.29592	0.10399
3990.36728	0.10310
3988.43863	0.10248
3986.50998	0.10198
3984.58134	0.10169
3982.65269	0.10186
3980.72405	0.10267
3978.79540	0.10411
3976.86676	0.10593
3974.93811	0.10775
3973.00947	0.10917
3971.08082	0.10991
3969.15218	0.10992
3967.22353	0.10943
3965.29489	0.10877
3963.36624	0.10824
3961.43759	0.10797
3959.50895	0.10803
3957.58030	0.10844
3955.65166	0.10910
3953.72301	0.10967
3951.79437	0.10970
3949.86572	0.10870
3947.93708	0.10634
3946.00843	0.10273
3944.07979	0.09870
3942.15114	0.09554
3940.22250	0.09436
3938.29385	0.09545
3936.36521	0.09808
3934.43656	0.10079
3932.50791	0.10198
3930.57927	0.10069
3928.65062	0.09708
3926.72198	0.09249
3924.79333	0.08880
3922.86469	0.08756
3920.93604	0.08943
3919.00740	0.09380
3917.07875	0.09900
3915.15011	0.10280
3913.22146	0.10324
3911.29282	0.09947
3909.36417	0.09210
3907.43552	0.08312
3905.50688	0.07521
3903.57823	0.07072
3901.64959	0.07075
3899.72094	0.07480
3897.79230	0.08110
3895.86365	0.08745
3893.93501	0.09216
3892.00636	0.09454
3890.07772	0.09492
3888.14907	0.09422
3886.22043	0.09345
3884.29178	0.09335
3882.36313	0.09402
3880.43449	0.09487
3878.50584	0.09499
3876.57720	0.09361
3874.64855	0.09056
3872.71991	0.08656
3870.79126	0.08316
3868.86262	0.08185
3866.93397	0.08292
3865.00533	0.08494
3863.07668	0.08546
3861.14804	0.08248
3859.21939	0.07571
3857.29074	0.06707
3855.36210	0.05993
3853.43345	0.05750
3851.50481	0.06081
3849.57616	0.06809
3847.64752	0.07582
3845.71887	0.08080
3843.79023	0.08155
3841.86158	0.07872
3839.93294	0.07454
3838.00429	0.07153
3836.07565	0.07124
3834.14700	0.07349
3832.21835	0.07685
3830.28971	0.07952
3828.36106	0.08009
3826.43242	0.07805
3824.50377	0.07397
3822.57513	0.06948
3820.64648	0.06659
3818.71784	0.06674
3816.78919	0.07013
3814.86055	0.07557
3812.93190	0.08080
3811.00326	0.08353
3809.07461	0.08264
3807.14597	0.07885
3805.21732	0.07433
3803.28867	0.07157
3801.36003	0.07229
3799.43138	0.07681
3797.50274	0.08396
3795.57409	0.09175
3793.64545	0.09839
3791.71680	0.10281
3789.78816	0.10480
3787.85951	0.10489
3785.93087	0.10410
3784.00222	0.10361
3782.07358	0.10428
3780.14493	0.10635
3778.21628	0.10922
3776.28764	0.11174
3774.35899	0.11286
3772.43035	0.11225
3770.50170	0.11048
3768.57306	0.10868
3766.64441	0.10777
3764.71577	0.10778
3762.78712	0.10756
3760.85848	0.10540
3758.92983	0.09986
3757.00119	0.09056
3755.07254	0.07850
3753.14389	0.06604
3751.21525	0.05615
3749.28660	0.05116
3747.35796	0.05167
3745.42931	0.05643
3743.50067	0.06284
3741.57202	0.06812
3739.64338	0.07068
3737.71473	0.07090
3735.78609	0.07074
3733.85744	0.07237
3731.92880	0.07685
3730.00015	0.08374
3728.07150	0.09154
3726.14286	0.09849
3724.21421	0.10335
3722.28557	0.10562
3720.35692	0.10540
3718.42828	0.10313
3716.49963	0.09953
3714.57099	0.09558
3712.64234	0.09256
3710.71370	0.09173
3708.78505	0.09374
3706.85641	0.09839
3704.92776	0.10461
3702.99911	0.11098
3701.07047	0.11603
3699.14182	0.11876
3697.21318	0.11905
3695.28453	0.11774
3693.35589	0.11620
3691.42724	0.11576
3689.49860	0.11716
3687.56995	0.12009
3685.64131	0.12331
3683.71266	0.12540
3681.78402	0.12565
3679.85537	0.12453
3677.92673	0.12362
3675.99808	0.12491
3674.06943	0.12994
3672.14079	0.13920
3670.21214	0.15189
3668.28350	0.16619
3666.35485	0.17986
3664.42621	0.19096
3662.49756	0.19835
3660.56892	0.20197
3658.64027	0.20283
3656.71163	0.20290
3654.78298	0.20450
3652.85434	0.20962
3650.92569	0.21939
3648.99704	0.23373
3647.06840	0.25133
3645.13975	0.27002
3643.21111	0.28757
3641.28246	0.30218
3639.35382	0.31292
3637.42517	0.31986
3635.49653	0.32405
3633.56788	0.32714
3631.63924	0.33114
3629.71059	0.33795
3627.78195	0.34871
3625.85330	0.36316
3623.92465	0.37964
3621.99601	0.39587
3620.06736	0.40983
3618.13872	0.42070
3616.21007	0.42915
3614.28143	0.43706
3612.35278	0.44646
3610.42414	0.45848
3608.49549	0.47305
3606.56685	0.48917
3604.63820	0.50541
3602.70956	0.52045
3600.78091	0.53338
3598.85226	0.54383
3596.92362	0.55183
3594.99497	0.55773
3593.06633	0.56229
3591.13768	0.56661
3589.20904	0.57192
3587.28039	0.57932
3585.35175	0.58950
3583.42310	0.60267
3581.49446	0.61855
3579.56581	0.63634
3577.63717	0.65490
3575.70852	0.67292
3573.77988	0.68928
3571.85123	0.70330
3569.92258	0.71499
3567.99394	0.72504
3566.06529	0.73457
3564.13665	0.74458
3562.20800	0.75567
3560.27936	0.76791
3558.35071	0.78102
3556.42207	0.79457
3554.49342	0.80821
3552.56478	0.82184
3550.63613	0.83561
3548.70749	0.84978
3546.77884	0.86445
3544.85019	0.87930
3542.92155	0.89352
3540.99290	0.90607
3539.06426	0.91615
3537.13561	0.92370
3535.20697	0.92957
3533.27832	0.93533
3531.34968	0.94264
3529.42103	0.95272
3527.49239	0.96596
3525.56374	0.98184
3523.63510	0.99907
3521.70645	1.01599
3519.77780	1.03104
3517.84916	1.04318
3515.92051	1.05230
3513.99187	1.05934
3512.06322	1.06606
3510.13458	1.07440
3508.20593	1.08556
3506.27729	1.09955
3504.34864	1.11530
3502.42000	1.13111
3500.49135	1.14523
3498.56271	1.15653
3496.63406	1.16481
3494.70541	1.17077
3492.77677	1.17562
3490.84812	1.18079
3488.91948	1.18755
3486.99083	1.19660
3485.06219	1.20782
3483.13354	1.22030
3481.20490	1.23269
3479.27625	1.24377
3477.34761	1.25293
3475.41896	1.26040
3473.49032	1.26708
3471.56167	1.27417
3469.63302	1.28266
3467.70438	1.29305
3465.77573	1.30516
3463.84709	1.31824
3461.91844	1.33115
3459.98980	1.34273
3458.06115	1.35222
3456.13251	1.35952
3454.20386	1.36519
3452.27522	1.37010
3450.34657	1.37507
3448.41793	1.38051
3446.48928	1.38634
3444.56064	1.39226
3442.63199	1.39806
3440.70334	1.40397
3438.77470	1.41046
3436.84605	1.41784
3434.91741	1.42593
3432.98876	1.43405
3431.06012	1.44122
3429.13147	1.44667
3427.20283	1.45023
3425.27418	1.45253
3423.34554	1.45475
3421.41689	1.45805
3419.48825	1.46300
3417.55960	1.46944
3415.63095	1.47659
3413.70231	1.48345
3411.77366	1.48917
3409.84502	1.49341
3407.91637	1.49642
3405.98773	1.49882
3404.05908	1.50121
3402.13044	1.50387
3400.20179	1.50671
3398.27315	1.50936
3396.34450	1.51142
3394.41586	1.51279
3392.48721	1.51380
3390.55856	1.51504
3388.62992	1.51697
3386.70127	1.51965
3384.77263	1.52268
3382.84398	1.52539
3380.91534	1.52706
3378.98669	1.52711
3377.05805	1.52538
3375.12940	1.52217
3373.20076	1.51815
3371.27211	1.51429
3369.34347	1.51161
3367.41482	1.51091
3365.48617	1.51229
3363.55753	1.51510
3361.62888	1.51816
3359.70024	1.52033
3357.77159	1.52091
3355.84295	1.51987
3353.91430	1.51765
3351.98566	1.51481
3350.05701	1.51173
3348.12837	1.50862
3346.19972	1.50563
3344.27108	1.50314
3342.34243	1.50165
3340.41378	1.50158
3338.48514	1.50289
3336.55649	1.50507
3334.62785	1.50740
3332.69920	1.50930
3330.77056	1.51053
3328.84191	1.51106
3326.91327	1.51103
3324.98462	1.51056
3323.05598	1.50977
3321.12733	1.50881
3319.19869	1.50795
3317.27004	1.50747
3315.34140	1.50737
3313.41275	1.50720
3311.48410	1.50638
3309.55546	1.50465
3307.62681	1.50232
3305.69817	1.50018
3303.76952	1.49911
3301.84088	1.49966
3299.91223	1.50174
3297.98359	1.50470
3296.05494	1.50771
3294.12630	1.51021
3292.19765	1.51203
3290.26901	1.51317
3288.34036	1.51354
3286.41171	1.51279
3284.48307	1.51048
3282.55442	1.50633
3280.62578	1.50039
3278.69713	1.49324
3276.76849	1.48571
3274.83984	1.47853
3272.91120	1.47206
3270.98255	1.46619
3269.05391	1.46053
3267.12526	1.45468
3265.19662	1.44835
3263.26797	1.44149
3261.33932	1.43428
3259.41068	1.42705
3257.48203	1.42011
3255.55339	1.41371
3253.62474	1.40791
3251.69610	1.40266
3249.76745	1.39770
3247.83881	1.39261
3245.91016	1.38694
3243.98152	1.38044
3242.05287	1.37316
3240.12423	1.36541
3238.19558	1.35764
3236.26693	1.35024
3234.33829	1.34340
3232.40964	1.33689
3230.48100	1.33028
3228.55235	1.32329
3226.62371	1.31606
3224.69506	1.30902
3222.76642	1.30266
3220.83777	1.29731
3218.90913	1.29295
3216.98048	1.28923
3215.05184	1.28563
3213.12319	1.28174
3211.19455	1.27730
3209.26590	1.27211
3207.33725	1.26594
3205.40861	1.25863
3203.47996	1.25022
3201.55132	1.24104
3199.62267	1.23166
3197.69403	1.22272
3195.76538	1.21475
3193.83674	1.20795
3191.90809	1.20214
3189.97945	1.19681
3188.05080	1.19130
3186.12216	1.18502
3184.19351	1.17772
3182.26486	1.16953
3180.33622	1.16095
3178.40757	1.15256
3176.47893	1.14477
3174.55028	1.13762
3172.62164	1.13091
3170.69299	1.12447
3168.76435	1.11842
3166.83570	1.11306
3164.90706	1.10854
3162.97841	1.10459
3161.04977	1.10047
3159.12112	1.09533
3157.19247	1.08857
3155.26383	1.08025
3153.33518	1.07108
3151.40654	1.06202
3149.47789	1.05389
3147.54925	1.04707
3145.62060	1.04149
3143.69196	1.03675
3141.76331	1.03232
3139.83467	1.02775
3137.90602	1.02268
3135.97738	1.01694
3134.04873	1.01052
3132.12008	1.00372
3130.19144	0.99700
3128.26279	0.99083
3126.33415	0.98543
3124.40550	0.98075
3122.47686	0.97653
3120.54821	0.97238
3118.61957	0.96804
3116.69092	0.96348
3114.76228	0.95880
3112.83363	0.95405
3110.90499	0.94913
3108.97634	0.94393
3107.04769	0.93851
3105.11905	0.93314
3103.19040	0.92832
3101.26176	0.92456
3099.33311	0.92209
3097.40447	0.92065
3095.47582	0.91969
3093.54718	0.91851
3091.61853	0.91654
3089.68989	0.91342
3087.76124	0.90919
3085.83260	0.90416
3083.90395	0.89877
3081.97531	0.89340
3080.04666	0.88829
3078.11801	0.88353
3076.18937	0.87896
3074.26072	0.87435
3072.33208	0.86964
3070.40343	0.86502
3068.47479	0.86071
3066.54614	0.85681
3064.61750	0.85314
3062.68885	0.84933
3060.76021	0.84498
3058.83156	0.83983
3056.90292	0.83403
3054.97427	0.82806
3053.04562	0.82254
3051.11698	0.81786
3049.18833	0.81411
3047.25969	0.81110
3045.33104	0.80834
3043.40240	0.80524
3041.47375	0.80133
3039.54511	0.79636
3037.61646	0.79047
3035.68782	0.78411
3033.75917	0.77791
3031.83053	0.77239
3029.90188	0.76780
3027.97323	0.76401
3026.04459	0.76073
3024.11594	0.75772
3022.18730	0.75487
3020.25865	0.75221
3018.33001	0.74978
3016.40136	0.74755
3014.47272	0.74536
3012.54407	0.74297
3010.61543	0.74032
3008.68678	0.73760
3006.75814	0.73514
3004.82949	0.73329
3002.90084	0.73223
3000.97220	0.73182
2999.04355	0.73161
2997.11491	0.73108
2995.18626	0.72993
2993.25762	0.72844
2991.32897	0.72723
2989.40033	0.72701
2987.47168	0.72830
2985.54304	0.73109
2983.61439	0.73488
2981.68575	0.73902
2979.75710	0.74324
2977.82845	0.74780
2975.89981	0.75327
2973.97116	0.76003
2972.04252	0.76805
2970.11387	0.77677
2968.18523	0.78520
2966.25658	0.79233
2964.32794	0.79748
2962.39929	0.80043
2960.47065	0.80138
2958.54200	0.80083
2956.61336	0.79938
2954.68471	0.79765
2952.75607	0.79628
2950.82742	0.79590
2948.89877	0.79683
2946.97013	0.79901
2945.04148	0.80248
2943.11284	0.80761
2941.18419	0.81473
2939.25555	0.82389
2937.32690	0.83495
2935.39826	0.84733
2933.46961	0.85985
2931.54097	0.87096
2929.61232	0.87953
2927.68368	0.88504
2925.75503	0.88718
2923.82638	0.88549
2921.89774	0.87943
2919.96909	0.86867
2918.04045	0.85322
2916.11180	0.83376
2914.18316	0.81189
2912.25451	0.78992
2910.32587	0.77011
2908.39722	0.75373
2906.46858	0.74088
2904.53993	0.73079
2902.61129	0.72227
2900.68264	0.71422
2898.75399	0.70614
2896.82535	0.69829
2894.89670	0.69131
2892.96806	0.68567
2891.03941	0.68145
2889.11077	0.67841
2887.18212	0.67613
2885.25348	0.67423
2883.32483	0.67246
2881.39619	0.67059
2879.46754	0.66848
2877.53890	0.66601
2875.61025	0.66295
2873.68160	0.65909
2871.75296	0.65468
2869.82431	0.65054
2867.89567	0.64769
2865.96702	0.64703
2864.03838	0.64914
2862.10973	0.65422
2860.18109	0.66165
2858.25244	0.66999
2856.32380	0.67730
2854.39515	0.68157
2852.46651	0.68107
2850.53786	0.67474
2848.60922	0.66278
2846.68057	0.64685
2844.75192	0.62938
2842.82328	0.61247
2840.89463	0.59739
2838.96599	0.58457
2837.03734	0.57397
2835.10870	0.56532
2833.18005	0.55844
2831.25141	0.55343
2829.32276	0.55029
2827.39412	0.54849
2825.46547	0.54711
2823.53683	0.54536
2821.60818	0.54279
2819.67953	0.53923
2817.75089	0.53488
2815.82224	0.53032
2813.89360	0.52619
2811.96495	0.52291
2810.03631	0.52071
2808.10766	0.51962
2806.17902	0.51932
2804.25037	0.51920
2802.32173	0.51892
2800.39308	0.51845
2798.46444	0.51780
2796.53579	0.51671
2794.60714	0.51493
2792.67850	0.51231
2790.74985	0.50883
2788.82121	0.50467
2786.89256	0.50041
2784.96392	0.49677
2783.03527	0.49410
2781.10663	0.49222
2779.17798	0.49068
2777.24934	0.48920
2775.32069	0.48766
2773.39205	0.48608
2771.46340	0.48466
2769.53475	0.48368
2767.60611	0.48330
2765.67746	0.48334
2763.74882	0.48334
2761.82017	0.48290
2759.89153	0.48177
2757.96288	0.48003
2756.03424	0.47805
2754.10559	0.47626
2752.17695	0.47488
2750.24830	0.47372
2748.31966	0.47246
2746.39101	0.47091
2744.46236	0.46923
2742.53372	0.46786
2740.60507	0.46713
2738.67643	0.46690
2736.74778	0.46655
2734.81914	0.46551
2732.89049	0.46365
2730.96185	0.46121
2729.03320	0.45869
2727.10456	0.45663
2725.17591	0.45527
2723.24727	0.45445
2721.31862	0.45388
2719.38998	0.45343
2717.46133	0.45291
2715.53268	0.45199
2713.60404	0.45041
2711.67539	0.44810
2709.74675	0.44509
2707.81810	0.44154
2705.88946	0.43794
2703.96081	0.43489
2702.03217	0.43267
2700.10352	0.43114
2698.17488	0.43012
2696.24623	0.42955
2694.31759	0.42937
2692.38894	0.42950
2690.46029	0.42998
2688.53165	0.43090
2686.60300	0.43202
2684.67436	0.43281
2682.74571	0.43289
2680.81707	0.43225
2678.88842	0.43101
2676.95978	0.42920
2675.03113	0.42691
2673.10249	0.42433
2671.17384	0.42163
2669.24520	0.41888
2667.31655	0.41617
2665.38790	0.41353
2663.45926	0.41083
2661.53061	0.40779
2659.60197	0.40435
2657.67332	0.40085
2655.74468	0.39786
2653.81603	0.39575
2651.88739	0.39460
2649.95874	0.39415
2648.03010	0.39406
2646.10145	0.39414
2644.17281	0.39447
2642.24416	0.39524
2640.31551	0.39625
2638.38687	0.39670
2636.45822	0.39567
2634.52958	0.39270
2632.60093	0.38805
2630.67229	0.38276
2628.74364	0.37838
2626.81500	0.37610
2624.88635	0.37587
2622.95771	0.37666
2621.02906	0.37750
2619.10042	0.37801
2617.17177	0.37805
2615.24312	0.37773
2613.31448	0.37752
2611.38583	0.37778
2609.45719	0.37832
2607.52854	0.37879
2605.59990	0.37937
2603.67125	0.38027
2601.74261	0.38094
2599.81396	0.38044
2597.88532	0.37849
2595.95667	0.37562
2594.02803	0.37251
2592.09938	0.36984
2590.17074	0.36838
2588.24209	0.36828
2586.31344	0.36851
2584.38480	0.36784
2582.45615	0.36603
2580.52751	0.36373
2578.59886	0.36158
2576.67022	0.36016
2574.74157	0.36009
2572.81293	0.36151
2570.88428	0.36378
2568.95564	0.36613
2567.02699	0.36809
2565.09835	0.36922
2563.16970	0.36866
2561.24105	0.36559
2559.31241	0.36002
2557.38376	0.35314
2555.45512	0.34695
2553.52647	0.34363
2551.59783	0.34443
2549.66918	0.34878
2547.74054	0.35419
2545.81189	0.35769
2543.88325	0.35771
2541.95460	0.35488
2540.02596	0.35128
2538.09731	0.34913
2536.16866	0.34951
2534.24002	0.35170
2532.31137	0.35383
2530.38273	0.35469
2528.45408	0.35456
2526.52544	0.35451
2524.59679	0.35539
2522.66815	0.35747
2520.73950	0.36040
2518.81086	0.36330
2516.88221	0.36552
2514.95357	0.36727
2513.02492	0.36906
2511.09627	0.37058
2509.16763	0.37082
2507.23898	0.36903
2505.31034	0.36504
2503.38169	0.35930
2501.45305	0.35308
2499.52440	0.34834
2497.59576	0.34656
2495.66711	0.34786
2493.73847	0.35128
2491.80982	0.35530
2489.88118	0.35835
2487.95253	0.35941
2486.02389	0.35875
2484.09524	0.35771
2482.16659	0.35758
2480.23795	0.35861
2478.30930	0.36004
2476.38066	0.36072
2474.45201	0.36004
2472.52337	0.35837
2470.59472	0.35676
2468.66608	0.35639
2466.73743	0.35794
2464.80879	0.36126
2462.88014	0.36553
2460.95150	0.36972
2459.02285	0.37292
2457.09420	0.37437
2455.16556	0.37342
2453.23691	0.37001
2451.30827	0.36506
2449.37962	0.36018
2447.45098	0.35692
2445.52233	0.35603
2443.59369	0.35702
2441.66504	0.35858
2439.73640	0.35941
2437.80775	0.35918
2435.87911	0.35860
2433.95046	0.35865
2432.02181	0.35976
2430.09317	0.36156
2428.16452	0.36302
2426.23588	0.36301
2424.30723	0.36090
2422.37859	0.35709
2420.44994	0.35285
2418.52130	0.34969
2416.59265	0.34868
2414.66401	0.35015
2412.73536	0.35377
2410.80672	0.35852
2408.87807	0.36300
2406.94942	0.36600
2405.02078	0.36720
2403.09213	0.36720
2401.16349	0.36697
2399.23484	0.36716
2397.30620	0.36786
2395.37755	0.36861
2393.44891	0.36859
2391.52026	0.36710
2389.59162	0.36399
2387.66297	0.35956
2385.73433	0.35447
2383.80568	0.34957
2381.87703	0.34592
2379.94839	0.34484
2378.01974	0.34750
2376.09110	0.35420
2374.16245	0.36351
2372.23381	0.37227
2370.30516	0.37678
2368.37652	0.37456
2366.44787	0.36557
2364.51923	0.35257
2362.59058	0.33997
2360.66194	0.33173
2358.73329	0.32952
2356.80465	0.33232
2354.87600	0.33759
2352.94735	0.34285
2351.01871	0.34676
2349.09006	0.34950
2347.16142	0.35211
2345.23277	0.35541
2343.30413	0.35919
2341.37548	0.36229
2339.44684	0.36326
2337.51819	0.36122
2335.58955	0.35640
2333.66090	0.35019
2331.73226	0.34467
2329.80361	0.34160
2327.87496	0.34158
2325.94632	0.34388
2324.01767	0.34695
2322.08903	0.34925
2320.16038	0.35006
2318.23174	0.34981
2316.30309	0.34978
2314.37445	0.35110
2312.44580	0.35388
2310.51716	0.35711
2308.58851	0.35919
2306.65987	0.35866
2304.73122	0.35490
2302.80257	0.34861
2300.87393	0.34147
2298.94528	0.33530
2297.01664	0.33131
2295.08799	0.32991
2293.15935	0.33081
2291.23070	0.33327
2289.30206	0.33644
2287.37341	0.33953
2285.44477	0.34185
2283.51612	0.34271
2281.58748	0.34165
2279.65883	0.33877
2277.73018	0.33474
2275.80154	0.33060
2273.87289	0.32750
2271.94425	0.32633
2270.01560	0.32736
2268.08696	0.33004
2266.15831	0.33325
2264.22967	0.33569
2262.30102	0.33648
2260.37238	0.33563
2258.44373	0.33363
2256.51509	0.33069
2254.58644	0.32675
2252.65779	0.32193
2250.72915	0.31676
2248.80050	0.31189
2246.87186	0.30797
2244.94321	0.30579
2243.01457	0.30505
2241.08592	0.30364
2239.15728	0.29929
2237.22863	0.29189
2235.29999	0.28397
2233.37134	0.27879
2231.44270	0.27844
2229.51405	0.28339
2227.58541	0.29207
2225.65676	0.30095
2223.72811	0.30600
2221.79947	0.30534
2219.87082	0.30083
2217.94218	0.29636
2216.01353	0.29511
2214.08489	0.29894
2212.15624	0.30861
2210.22760	0.32244
2208.29895	0.33533
2206.37031	0.34162
2204.44166	0.33948
2202.51302	0.33115
2200.58437	0.32012
2198.65572	0.30946
2196.72708	0.30183
2194.79843	0.29883
2192.86979	0.29955
2190.94114	0.30112
2189.01250	0.30094
2187.08385	0.29749
2185.15521	0.28946
2183.22656	0.27551
2181.29792	0.25688
2179.36927	0.23971
2177.44063	0.23237
2175.51198	0.23941
2173.58333	0.25605
2171.65469	0.26728
2169.72604	0.25594
2167.79740	0.21373
2165.86875	0.14641
2163.94011	0.07248
2162.01146	0.01698
2160.08282	0.00000
2158.15417	0.02377
2156.22553	0.07076
2154.29688	0.11887
2152.36824	0.15573
2150.43959	0.17931
2148.51094	0.19382
2146.58230	0.20724
2144.65365	0.22614
2142.72501	0.24975
2140.79636	0.27140
2138.86772	0.28630
2136.93907	0.29441
2135.01043	0.29716
2133.08178	0.29564
2131.15314	0.29130
2129.22449	0.28622
2127.29585	0.28260
2125.36720	0.28274
2123.43856	0.28832
2121.50991	0.29893
2119.58126	0.31151
2117.65262	0.32158
2115.72397	0.32543
2113.79533	0.32194
2111.86668	0.31289
2109.93804	0.30197
2108.00939	0.29314
2106.08075	0.28912
2104.15210	0.29028
2102.22346	0.29459
2100.29481	0.29889
2098.36617	0.30066
2096.43752	0.29921
2094.50887	0.29544
2092.58023	0.29111
2090.65158	0.28790
2088.72294	0.28647
2086.79429	0.28602
2084.86565	0.28508
2082.93700	0.28293
2081.00836	0.28035
2079.07971	0.27912
2077.15107	0.28101
2075.22242	0.28666
2073.29378	0.29493
2071.36513	0.30283
2069.43648	0.30659
2067.50784	0.30323
2065.57919	0.29205
2063.65055	0.27500
2061.72190	0.25605
2059.79326	0.23977
2057.86461	0.22975
2055.93597	0.22750
2054.00732	0.23224
2052.07868	0.24165
2050.15003	0.25300
2048.22139	0.26369
2046.29274	0.27107
2044.36409	0.27235
2042.43545	0.26516
2040.50680	0.24847
2038.57816	0.22333
2036.64951	0.19296
2034.72087	0.16217
2032.79222	0.13605
2030.86358	0.11823
2028.93493	0.11006
2027.00629	0.11053
2025.07764	0.11783
2023.14900	0.13045
2021.22035	0.14683
2019.29170	0.16579
2017.36306	0.18602
2015.43441	0.20545
2013.50577	0.22151
2011.57712	0.23224
2009.64848	0.23776
2007.71983	0.24078
2005.79119	0.24561
2003.86254	0.25589
2001.93390	0.27218
2000.00525	0.29114
1998.07661	0.30704
1996.14796	0.31495
1994.21932	0.31363
1992.29067	0.30629
1990.36202	0.29850
1988.43338	0.29498
1986.50473	0.29714
1984.57609	0.30263
1982.64744	0.30706
1980.71880	0.30679
1978.79015	0.30113
1976.86151	0.29244
1974.93286	0.28451
1973.00422	0.28057
1971.07557	0.28197
1969.14693	0.28801
1967.21828	0.29659
1965.28963	0.30529
1963.36099	0.31196
1961.43234	0.31490
1959.50370	0.31286
1957.57505	0.30536
1955.64641	0.29323
1953.71776	0.27890
1951.78912	0.26595
1949.86047	0.25802
1947.93183	0.25743
1946.00318	0.26398
1944.07454	0.27496
1942.14589	0.28657
1940.21724	0.29565
1938.28860	0.30096
1936.35995	0.30309
1934.43131	0.30365
1932.50266	0.30398
1930.57402	0.30420
1928.64537	0.30349
1926.71673	0.30100
1924.78808	0.29677
1922.85944	0.29180
1920.93079	0.28739
1919.00215	0.28428
1917.07350	0.28223
1915.14485	0.28037
1913.21621	0.27806
1911.28756	0.27547
1909.35892	0.27348
1907.43027	0.27306
1905.50163	0.27461
1903.57298	0.27771
1901.64434	0.28140
1899.71569	0.28468
1897.78705	0.28697
1895.85840	0.28824
1893.92976	0.28887
1892.00111	0.28931
1890.07246	0.28990
1888.14382	0.29084
1886.21517	0.29221
1884.28653	0.29393
1882.35788	0.29588
1880.42924	0.29781
1878.50059	0.29937
1876.57195	0.30020
1874.64330	0.30012
1872.71466	0.29919
1870.78601	0.29769
1868.85737	0.29612
1866.92872	0.29498
1865.00008	0.29460
1863.07143	0.29488
1861.14278	0.29543
1859.21414	0.29585
1857.28549	0.29590
1855.35685	0.29558
1853.42820	0.29517
1851.49956	0.29511
1849.57091	0.29583
1847.64227	0.29745
1845.71362	0.29975
1843.78498	0.30224
1841.85633	0.30435
1839.92769	0.30554
1837.99904	0.30550
1836.07039	0.30423
1834.14175	0.30197
1832.21310	0.29904
1830.28446	0.29591
1828.35581	0.29313
1826.42717	0.29122
1824.49852	0.29054
1822.56988	0.29105
1820.64123	0.29241
1818.71259	0.29407
1816.78394	0.29557
1814.85530	0.29675
1812.92665	0.29776
1810.99800	0.29886
1809.06936	0.30010
1807.14071	0.30128
1805.21207	0.30194
1803.28342	0.30172
1801.35478	0.30051
1799.42613	0.29865
1797.49749	0.29674
1795.56884	0.29544
1793.64020	0.29519
1791.71155	0.29623
1789.78291	0.29847
1787.85426	0.30157
1785.92561	0.30496
1783.99697	0.30787
1782.06832	0.30947
1780.13968	0.30920
1778.21103	0.30710
1776.28239	0.30401
1774.35374	0.30134
1772.42510	0.30058
1770.49645	0.30265
1768.56781	0.30749
1766.63916	0.31413
1764.71052	0.32106
1762.78187	0.32687
1760.85322	0.33074
1758.92458	0.33278
1756.99593	0.33395
1755.06729	0.33576
1753.13864	0.33966
1751.21000	0.34654
1749.28135	0.35621
1747.35271	0.36735
1745.42406	0.37795
1743.49542	0.38616
1741.56677	0.39127
1739.63813	0.39403
1737.70948	0.39640
1735.78084	0.40072
1733.85219	0.40862
1731.92354	0.42015
1729.99490	0.43356
1728.06625	0.44610
1726.13761	0.45533
1724.20896	0.46017
1722.28032	0.46133
1720.35167	0.46097
1718.42303	0.46174
1716.49438	0.46559
1714.56574	0.47278
1712.63709	0.48192
1710.70845	0.49080
1708.77980	0.49764
1706.85115	0.50201
1704.92251	0.50523
1702.99386	0.51012
1701.06522	0.51983
1699.13657	0.53648
1697.20793	0.55994
1695.27928	0.58786
1693.35064	0.61671
1691.42199	0.64344
1689.49335	0.66673
1687.56470	0.68744
1685.63606	0.70792
1683.70741	0.73052
1681.77876	0.75620
1679.85012	0.78427
1677.92147	0.81326
1675.99283	0.84201
1674.06418	0.87034
1672.13554	0.89888
1670.20689	0.92860
1668.27825	0.95986
1666.34960	0.99159
1664.42096	1.02143
1662.49231	1.04685
1660.56367	1.06618
1658.63502	1.07925
1656.70637	1.08759
1654.77773	1.09409
1652.84908	1.10193
1650.92044	1.11303
1648.99179	1.12720
1647.06315	1.14252
1645.13450	1.15645
1643.20586	1.16688
1641.27721	1.17288
1639.34857	1.17498
1637.41992	1.17458
1635.49128	1.17281
1633.56263	1.16971
1631.63399	1.16429
1629.70534	1.15512
1627.77669	1.14119
1625.84805	1.12248
1623.91940	1.10027
1621.99076	1.07688
1620.06211	1.05498
1618.13347	1.03671
1616.20482	1.02311
1614.27618	1.01391
1612.34753	1.00781
1610.41889	1.00312
1608.49024	0.99846
1606.56160	0.99309
1604.63295	0.98688
1602.70430	0.98003
1600.77566	0.97274
1598.84701	0.96492
1596.91837	0.95628
1594.98972	0.94658
1593.06108	0.93594
1591.13243	0.92479
1589.20379	0.91352
1587.27514	0.90224
1585.34650	0.89080
1583.41785	0.87905
1581.48921	0.86706
1579.56056	0.85538
1577.63191	0.84509
1575.70327	0.83741
1573.77462	0.83283
1571.84598	0.83053
1569.91733	0.82848
1567.98869	0.82437
1566.06004	0.81668
1564.13140	0.80559
1562.20275	0.79329
1560.27411	0.78325
1558.34546	0.77843
1556.41682	0.77959
1554.48817	0.78464
1552.55952	0.78944
1550.63088	0.78951
1548.70223	0.78196
1546.77359	0.76665
1544.84494	0.74622
1542.91630	0.72488
1540.98765	0.70668
1539.05901	0.69401
1537.13036	0.68691
1535.20172	0.68337
1533.27307	0.68047
1531.34443	0.67558
1529.41578	0.66739
1527.48713	0.65630
1525.55849	0.64424
1523.62984	0.63360
1521.70120	0.62595
1519.77255	0.62109
1517.84391	0.61690
1515.91526	0.61030
1513.98662	0.59888
1512.05797	0.58218
1510.12933	0.56194
1508.20068	0.54142
1506.27204	0.52386
1504.34339	0.51096
1502.41475	0.50215
1500.48610	0.49529
1498.55745	0.48816
1496.62881	0.47951
1494.70016	0.46957
1492.77152	0.45964
1490.84287	0.45144
1488.91423	0.44618
1486.98558	0.44397
1485.05694	0.44393
1483.12829	0.44497
1481.19965	0.44657
1479.27100	0.44927
1477.34236	0.45440
1475.41371	0.46340
1473.48506	0.47695
1471.55642	0.49418
1469.62777	0.51249
1467.69913	0.52851
1465.77048	0.53956
1463.84184	0.54480
1461.91319	0.54535
1459.98455	0.54363
1458.05590	0.54232
1456.12726	0.54314
1454.19861	0.54613
1452.26997	0.54993
1450.34132	0.55266
1448.41267	0.55286
1446.48403	0.54997
1444.55538	0.54455
1442.62674	0.53801
1440.69809	0.53220
1438.76945	0.52887
1436.84080	0.52920
1434.91216	0.53351
1432.98351	0.54109
1431.05487	0.55047
1429.12622	0.56003
1427.19758	0.56861
1425.26893	0.57595
1423.34028	0.58271
1421.41164	0.59000
1419.48299	0.59870
1417.55435	0.60897
1415.62570	0.62008
1413.69706	0.63086
1411.76841	0.64022
1409.83977	0.64747
1407.91112	0.65237
1405.98248	0.65498
1404.05383	0.65558
1402.12519	0.65456
1400.19654	0.65241
1398.26789	0.64978
1396.33925	0.64746
1394.41060	0.64610
1392.48196	0.64597
1390.55331	0.64687
1388.62467	0.64818
1386.69602	0.64907
1384.76738	0.64869
1382.83873	0.64637
1380.91009	0.64186
1378.98144	0.63539
1377.05280	0.62755
1375.12415	0.61906
1373.19551	0.61044
1371.26686	0.60189
1369.33821	0.59325
1367.40957	0.58425
1365.48092	0.57483
1363.55228	0.56527
1361.62363	0.55623
1359.69499	0.54837
1357.76634	0.54214
1355.83770	0.53756
1353.90905	0.53426
1351.98041	0.53151
1350.05176	0.52849
1348.12312	0.52455
1346.19447	0.51948
1344.26582	0.51356
1342.33718	0.50749
1340.40853	0.50219
1338.47989	0.49847
1336.55124	0.49675
1334.62260	0.49681
1332.69395	0.49797
1330.76531	0.49931
1328.83666	0.50002
1326.90802	0.49957
1324.97937	0.49792
1323.05073	0.49544
1321.12208	0.49274
1319.19343	0.49038
1317.26479	0.48871
1315.33614	0.48785
1313.40750	0.48766
1311.47885	0.48791
1309.55021	0.48828
1307.62156	0.48849
1305.69292	0.48833
1303.76427	0.48767
1301.83563	0.48661
1299.90698	0.48547
1297.97834	0.48484
1296.04969	0.48533
1294.12104	0.48740
1292.19240	0.49109
1290.26375	0.49604
1288.33511	0.50154
1286.40646	0.50687
1284.47782	0.51149
1282.54917	0.51522
1280.62053	0.51827
1278.69188	0.52112
1276.76324	0.52429
1274.83459	0.52818
1272.90595	0.53287
1270.97730	0.53809
1269.04866	0.54333
1267.12001	0.54799
1265.19136	0.55159
1263.26272	0.55396
1261.33407	0.55530
1259.40543	0.55602
1257.47678	0.55664
1255.54814	0.55761
1253.61949	0.55924
1251.69085	0.56162
1249.76220	0.56465
1247.83356	0.56810
1245.90491	0.57165
1243.97627	0.57500
1242.04762	0.57793
1240.11897	0.58036
1238.19033	0.58240
1236.26168	0.58437
1234.33304	0.58668
1232.40439	0.58970
1230.47575	0.59357
1228.54710	0.59809
1226.61846	0.60268
1224.68981	0.60658
1222.76117	0.60916
1220.83252	0.61019
1218.90388	0.60995
1216.97523	0.60912
1215.04658	0.60846
1213.11794	0.60853
1211.18929	0.60953
1209.26065	0.61138
1207.33200	0.61397
1205.40336	0.61724
1203.47471	0.62125
1201.54607	0.62622
1199.61742	0.63240
1197.68878	0.63999
1195.76013	0.64900
1193.83149	0.65938
1191.90284	0.67110
1189.97419	0.68407
1188.04555	0.69818
1186.11690	0.71351
1184.18826	0.73037
1182.25961	0.74900
1180.33097	0.76948
1178.40232	0.79175
1176.47368	0.81574
1174.54503	0.84140
1172.61639	0.86867
1170.68774	0.89719
1168.75910	0.92614
1166.83045	0.95417
1164.90180	0.97986
1162.97316	1.00240
1161.04451	1.02209
1159.11587	1.04032
1157.18722	1.05886
1155.25858	1.07896
1153.32993	1.10093
1151.40129	1.12437
1149.47264	1.14873
1147.54400	1.17388
1145.61535	1.20046
1143.68671	1.22969
1141.75806	1.26271
1139.82942	1.29983
1137.90077	1.34033
1135.97212	1.38244
1134.04348	1.42370
1132.11483	1.46160
1130.18619	1.49460
1128.25754	1.52267
1126.32890	1.54719
1124.40025	1.57015
1122.47161	1.59321
1120.54296	1.61713
1118.61432	1.64161
1116.68567	1.66550
1114.75703	1.68756
1112.82838	1.70724
1110.89973	1.72499
1108.97109	1.74188
1107.04244	1.75915
1105.11380	1.77775
1103.18515	1.79806
1101.25651	1.81967
1099.32786	1.84170
1097.39922	1.86325
1095.47057	1.88382
1093.54193	1.90339
1091.61328	1.92223
1089.68464	1.94046
1087.75599	1.95787
1085.82734	1.97377
1083.89870	1.98698
1081.97005	1.99611
1080.04141	2.00000
1078.11276	1.99811
1076.18412	1.99068
1074.25547	1.97890
1072.32683	1.96489
1070.39818	1.95098
1068.46954	1.93873
1066.54089	1.92853
1064.61225	1.91974
1062.68360	1.91081
1060.75495	1.89996
1058.82631	1.88623
1056.89766	1.86999
1054.96902	1.85266
1053.04037	1.83598
1051.11173	1.82137
1049.18308	1.80936
1047.25444	1.79935
1045.32579	1.79028
1043.39715	1.78137
1041.46850	1.77238
1039.53986	1.76355
1037.61121	1.75524
1035.68256	1.74722
1033.75392	1.73835
1031.82527	1.72711
1029.89663	1.71267
1027.96798	1.69534
1026.03934	1.67612
1024.11069	1.65629
1022.18205	1.63697
1020.25340	1.61858
1018.32476	1.60072
1016.39611	1.58276
1014.46747	1.56452
1012.53882	1.54623
1010.61018	1.52814
1008.68153	1.51055
1006.75288	1.49396
1004.82424	1.47898
1002.89559	1.46593
1000.96695	1.45485
999.03830	1.44550
997.10966	1.43750
995.18101	1.43041
993.25237	1.42375
991.32372	1.41683
989.39508	1.40867
987.46643	1.39794
985.53779	1.38323
983.60914	1.36359
981.68049	1.33908
979.75185	1.31067
977.82320	1.27959
975.89456	1.24658
973.96591	1.21195
972.03727	1.17580
970.10862	1.13819
968.17998	1.09948
966.25133	1.06056
964.32269	1.02285
962.39404	0.98784
960.46540	0.95667
958.53675	0.93010
956.60810	0.90844
954.67946	0.89115
952.75081	0.87682
950.82217	0.86373
948.89352	0.85054
946.96488	0.83673
945.03623	0.82257
943.10759	0.80888
941.17894	0.79672
939.25030	0.78649
937.32165	0.77752
935.39301	0.76853
933.46436	0.75873
931.53571	0.74839
929.60707	0.73861
927.67842	0.73057
925.74978	0.72473
923.82113	0.72039
921.89249	0.71602
919.96384	0.71012
918.03520	0.70200
916.10655	0.69180
914.17791	0.68023
912.24926	0.66817
910.32062	0.65633
908.39197	0.64525
906.46333	0.63576
904.53468	0.62903
902.60603	0.62545
900.67739	0.62398
898.74874	0.62279
896.82010	0.62033
894.89145	0.61575
892.96281	0.60884
891.03416	0.60036
889.10552	0.59187
887.17687	0.58499
885.24823	0.58074
883.31958	0.57958
881.39094	0.58137
879.46229	0.58508
877.53364	0.58880
875.60500	0.59040
873.67635	0.58840
871.74771	0.58274
869.81906	0.57460
867.89042	0.56539
865.96177	0.55598
864.03313	0.54678
862.10448	0.53795
860.17584	0.52960
858.24719	0.52178
856.31855	0.51481
854.38990	0.50916
852.46125	0.50494
850.53261	0.50153
848.60396	0.49813
846.67532	0.49423
844.74667	0.48963
842.81803	0.48426
840.88938	0.47853
838.96074	0.47350
837.03209	0.47040
835.10345	0.46990
833.17480	0.47182
831.24616	0.47525
829.31751	0.47875
827.38886	0.48087
825.46022	0.48084
823.53157	0.47908
821.60293	0.47697
819.67428	0.47594
817.74564	0.47670
815.81699	0.47936
813.88835	0.48415
811.95970	0.49185
810.03106	0.50387
808.10241	0.52176
806.17377	0.54636
804.24512	0.57671
802.31647	0.60981
800.38783	0.64145
798.45918	0.66766
796.53054	0.68559
794.60189	0.69395
792.67325	0.69348
790.74460	0.68729
788.81596	0.68029
786.88731	0.67726
784.95867	0.68081
783.03002	0.69040
781.10138	0.70232
779.17273	0.71115
777.24409	0.71243
775.31544	0.70503
773.38679	0.69136
771.45815	0.67532
769.52950	0.66013
767.60086	0.64756
765.67221	0.63772
763.74357	0.62942
761.81492	0.62153
759.88628	0.61409
757.95763	0.60805
756.02899	0.60408
754.10034	0.60210
752.17170	0.60137
750.24305	0.60003
748.31440	0.59504
746.38576	0.58396
744.45711	0.56692
742.52847	0.54660
740.59982	0.52704
738.67118	0.51242
736.74253	0.50572
734.81389	0.50705
732.88524	0.51363
730.95660	0.52173
729.02795	0.52868
727.09931	0.53337
725.17066	0.53593
723.24201	0.53704
721.31337	0.53714
719.38472	0.53610
717.45608	0.53345
715.52743	0.52910
713.59879	0.52381
711.67014	0.51919
709.74150	0.51725
707.81285	0.51977
705.88421	0.52763
703.95556	0.54057
702.02692	0.55709
700.09827	0.57466
698.16962	0.59031
696.24098	0.60136
694.31233	0.60625
692.38369	0.60500
690.45504	0.59905
688.52640	0.59062
686.59775	0.58187
684.66911	0.57431
682.74046	0.56843
680.81182	0.56401
678.88317	0.56065
676.95453	0.55804
675.02588	0.55591
673.09723	0.55395
671.16859	0.55189
669.23994	0.54951
667.31130	0.54671
665.38265	0.54392
663.45401	0.54194
661.52536	0.54136
659.59672	0.54217
657.66807	0.54392
655.73943	0.54604
653.81078	0.54817
651.88214	0.55040
649.95349	0.55326
648.02485	0.55736
646.09620	0.56274
644.16755	0.56869
642.23891	0.57396
640.31026	0.57722
638.38162	0.57768
636.45297	0.57569
634.52433	0.57299
632.59568	0.57222
630.66704	0.57528
628.73839	0.58172
626.80975	0.58888
624.88110	0.59381
622.95246	0.59487
621.02381	0.59217
619.09516	0.58753
617.16652	0.58360
615.23787	0.58098
613.30923	0.57665
611.38058	0.56658
609.45194	0.55017
607.52329	0.53127
605.59465	0.51584
603.66600	0.50962
601.73736	0.51614
599.80871	0.53426
597.88007	0.55821
595.95142	0.58132
594.02277	0.59987
592.09413	0.61356
590.16548	0.62381
588.23684	0.63278
586.30819	0.64256
584.37955	0.65423
582.45090	0.66758
580.52226	0.68179
578.59361	0.69586
576.66497	0.70858
574.73632	0.71870
572.80768	0.72603
570.87903	0.73208
568.95038	0.73960
567.02174	0.75133
565.09309	0.76878
563.16445	0.79119
561.23580	0.81548
559.30716	0.83773
557.37851	0.85564
555.44987	0.87006
553.52122	0.88435
551.59258	0.90250
549.66393	0.92703
547.73529	0.95768
545.80664	0.99148
543.87800	1.02421
541.94935	1.05240
540.02070	1.07447
538.09206	1.09081
536.16341	1.10312
534.23477	1.11336
532.30612	1.12286
530.37748	1.13197
528.44883	1.13984
526.52019	1.14448
524.59154	1.14329
522.66290	1.13449
520.73425	1.11815
518.80561	1.09644
516.87696	1.07297
514.94831	1.05171
513.01967	1.03552
511.09102	1.02491
509.16238	1.01816
507.23373	1.01258
505.30509	1.00596
503.37644	0.99739
501.44780	0.98753
499.51915	0.97824
497.59051	0.97179
495.66186	0.97016
493.73322	0.97476
491.80457	0.98674
489.87592	1.00714
487.94728	1.03666
486.01863	1.07482
484.08999	1.11952
482.16134	1.16731
480.23270	1.21438
478.30405	1.25783
476.37541	1.29649
474.44676	1.33066
472.51812	1.36078
470.58947	1.38606
468.66083	1.40423
466.73218	1.41228
464.80353	1.40814
462.87489	1.39199
460.94624	1.36653
459.01760	1.33591
457.08895	1.30408
455.16031	1.27366
453.23166	1.24556
451.30302	1.21923
449.37437	1.19329
447.44573	1.16632
445.51708	1.13759
443.58844	1.10741
441.65979	1.07710
439.73114	1.04865
437.80250	1.02405
435.87385	1.00432
433.94521	0.98877
432.01656	0.97509
430.08792	0.96032
428.15927	0.94222
426.23063	0.92022
424.30198	0.89569
422.37334	0.87120
420.44469	0.84910
418.51605	0.83009
416.58740	0.81268
414.65876	0.79405
412.73011	0.77186
410.80146	0.74623
408.87282	0.72075
406.94417	0.70192
405.01553	0.69671
403.08688	0.70921
401.15824	0.73804
399.22959	0.77573
397.30095	0.81077
395.37230	0.83155
393.44366	0.83057
391.51501	0.80725
389.58637	0.76789
387.65772	0.72317
385.72907	0.68418
383.80043	0.65914
381.87178	0.65164
379.94314	0.66077
378.01449	0.68247
376.08585	0.71116
374.15720	0.74076
372.22856	0.76524
370.29991	0.77934
368.37127	0.77952
366.44262	0.76474
364.51398	0.73656
362.58533	0.69864
360.65668	0.65598
358.72804	0.61383
356.79939	0.57685
354.87075	0.54845
352.94210	0.53046
351.01346	0.52253
349.08481	0.52173
347.15617	0.52301
345.22752	0.52096
343.29888	0.51182
341.37023	0.49458
339.44159	0.47056
337.51294	0.44220
335.58429	0.41210
333.65565	0.38257
331.72700	0.35571
329.79836	0.33375
327.86971	0.31895
325.94107	0.31253
324.01242	0.31346
322.08378	0.31841
320.15513	0.32324
318.22649	0.32485
316.29784	0.32190
314.36920	0.31417
312.44055	0.30189
310.51190	0.28565
308.58326	0.26659
306.65461	0.24671
304.72597	0.22867
302.79732	0.21472
300.86868	0.20524
298.94003	0.19854
297.01139	0.19219
295.08274	0.18467
293.15410	0.17576
291.22545	0.16579
289.29681	0.15473
287.36816	0.14191
285.43952	0.12712
283.51087	0.11269
281.58222	0.10269
279.65358	0.10210
277.72493	0.11342
275.79629	0.13517
273.86764	0.16307
271.93900	0.19273
270.01035	0.22162
268.08171	0.24907
266.15306	0.27435
264.22442	0.29447
262.29577	0.30392
260.36713	0.29709
258.43848	0.27212
256.50983	0.23357
254.58119	0.19158
252.65254	0.15797
250.72390	0.14149
248.79525	0.14519
246.86661	0.16663
244.93796	0.19986
243.00932	0.23780
241.08067	0.27369
239.15203	0.30147
237.22338	0.31562
235.29474	0.31151
233.36609	0.28722
231.43744	0.24632
229.50880	0.19904
227.58015	0.16013
225.65151	0.14376
223.72286	0.15802
221.79422	0.20155
219.86557	0.26324
217.93693	0.32577
216.00828	0.37179
214.07964	0.38998
212.15099	0.37846
210.22235	0.34428
208.29370	0.29983
206.36505	0.25837
204.43641	0.23038
202.50776	0.22123
200.57912	0.23033
198.65047	0.25268
196.72183	0.28219
194.79318	0.31431
192.86454	0.34717
190.93589	0.38119
189.00725	0.41714
187.07860	0.45319
185.14996	0.48313
183.22131	0.49785
181.29267	0.48950
179.36402	0.45621
177.43537	0.40551
175.50673	0.35331
173.57808	0.31728
171.64944	0.30892
169.72079	0.32976
167.79215	0.37310
165.86350	0.42873
163.93486	0.48763
162.00621	0.55261
160.07757	0.61409
158.14892	0.66700
156.22028	0.70764
154.29163	0.70764
152.36298	0.70764
150.43434	0.70764
148.50569	0.70764
