4497.60101	0.07852
4495.67236	0.07852
4493.74372	0.07852
4491.81507	0.07852
4489.88643	0.07852
4487.95778	0.07778
4486.02914	0.07727
4484.10049	0.07732
4482.17185	0.07836
4480.24320	0.08091
4478.31455	0.08461
4476.38591	0.08914
4474.45726	0.09361
4472.52862	0.09704
4470.59997	0.09894
4468.67133	0.09926
4466.74268	0.09839
4464.81404	0.09720
4462.88539	0.09661
4460.95675	0.09701
4459.02810	0.09822
4457.09946	0.09988
4455.17081	0.10143
4453.24216	0.10188
4451.31352	0.10031
4449.38487	0.09663
4447.45623	0.09188
4445.52758	0.08755
4443.59894	0.08464
4441.67029	0.08317
4439.74165	0.08238
4437.81300	0.08144
4435.88436	0.08008
4433.95571	0.07888
4432.02707	0.07899
4430.09842	0.08109
4428.16978	0.08453
4426.24113	0.08772
4424.31248	0.08948
4422.38384	0.08964
4420.45519	0.08853
4418.52655	0.08666
4416.59790	0.08467
4414.66926	0.08308
4412.74061	0.08199
4410.81197	0.08157
4408.88332	0.08249
4406.95468	0.08523
4405.02603	0.08921
4403.09739	0.09298
4401.16874	0.09521
4399.24009	0.09542
4397.31145	0.09400
4395.38280	0.09221
4393.45416	0.09171
4391.52551	0.09346
4389.59687	0.09684
4387.66822	0.10000
4385.73958	0.10110
4383.81093	0.09957
4381.88229	0.09628
4379.95364	0.09281
4378.02500	0.09039
4376.09635	0.08894
4374.16770	0.08726
4372.23906	0.08394
4370.31041	0.07839
4368.38177	0.07132
4366.45312	0.06445
4364.52448	0.05956
4362.59583	0.05732
4360.66719	0.05709
4358.73854	0.05810
4356.80990	0.06043
4354.88125	0.06447
4352.95261	0.07019
4351.02396	0.07714
4349.09531	0.08434
4347.16667	0.08993
4345.23802	0.09151
4343.30938	0.08779
4341.38073	0.07976
4339.45209	0.06978
4337.52344	0.06027
4335.59480	0.05344
4333.66615	0.05109
4331.73751	0.05362
4329.80886	0.05939
4327.88022	0.06607
4325.95157	0.07212
4324.02292	0.07671
4322.09428	0.07923
4320.16563	0.07979
4318.23699	0.07952
4316.30834	0.07971
4314.37970	0.08083
4312.45105	0.08263
4310.52241	0.08464
4308.59376	0.08603
4306.66512	0.08566
4304.73647	0.08279
4302.80783	0.07800
4300.87918	0.07291
4298.95054	0.06919
4297.02189	0.06768
4295.09324	0.06828
4293.16460	0.07009
4291.23595	0.07177
4289.30731	0.07241
4287.37866	0.07238
4285.45002	0.07293
4283.52137	0.07493
4281.59273	0.07825
4279.66408	0.08200
4277.73544	0.08500
4275.80679	0.08599
4273.87815	0.08421
4271.94950	0.07989
4270.02085	0.07415
4268.09221	0.06835
4266.16356	0.06373
4264.23492	0.06126
4262.30627	0.06140
4260.37763	0.06373
4258.44898	0.06715
4256.52034	0.07048
4254.59169	0.07295
4252.66305	0.07431
4250.73440	0.07480
4248.80576	0.07496
4246.87711	0.07550
4244.94846	0.07700
4243.01982	0.07977
4241.09117	0.08359
4239.16253	0.08768
4237.23388	0.09116
4235.30524	0.09341
4233.37659	0.09423
4231.44795	0.09360
4229.51930	0.09180
4227.59066	0.08932
4225.66201	0.08666
4223.73337	0.08427
4221.80472	0.08274
4219.87607	0.08275
4217.94743	0.08462
4216.01878	0.08765
4214.09014	0.09024
4212.16149	0.09099
4210.23285	0.08961
4208.30420	0.08689
4206.37556	0.08418
4204.44691	0.08296
4202.51827	0.08426
4200.58962	0.08762
4198.66098	0.09131
4196.73233	0.09374
4194.80368	0.09408
4192.87504	0.09203
4190.94639	0.08773
4189.01775	0.08219
4187.08910	0.07685
4185.16046	0.07279
4183.23181	0.07052
4181.30317	0.07007
4179.37452	0.07074
4177.44588	0.07150
4175.51723	0.07202
4173.58859	0.07293
4171.65994	0.07527
4169.73130	0.07972
4167.80265	0.08601
4165.87400	0.09263
4163.94536	0.09716
4162.01671	0.09774
4160.08807	0.09406
4158.15942	0.08734
4156.23078	0.07973
4154.30213	0.07354
4152.37349	0.07033
4150.44484	0.07041
4148.51620	0.07296
4146.58755	0.07676
4144.65891	0.08068
4142.73026	0.08389
4140.80161	0.08582
4138.87297	0.08624
4136.94432	0.08522
4135.01568	0.08297
4133.08703	0.07992
4131.15839	0.07685
4129.22974	0.07466
4127.30110	0.07379
4125.37245	0.07395
4123.44381	0.07412
4121.51516	0.07315
4119.58652	0.07050
4117.65787	0.06688
4115.72922	0.06406
4113.80058	0.06399
4111.87193	0.06779
4109.94329	0.07497
4108.01464	0.08355
4106.08600	0.09104
4104.15735	0.09556
4102.22871	0.09637
4100.30006	0.09396
4098.37142	0.08970
4096.44277	0.08523
4094.51413	0.08172
4092.58548	0.07982
4090.65683	0.07975
4088.72819	0.08104
4086.79954	0.08259
4084.87090	0.08338
4082.94225	0.08302
4081.01361	0.08192
4079.08496	0.08094
4077.15632	0.08095
4075.22767	0.08230
4073.29903	0.08462
4071.37038	0.08700
4069.44174	0.08841
4067.51309	0.08826
4065.58444	0.08656
4063.65580	0.08388
4061.72715	0.08107
4059.79851	0.07910
4057.86986	0.07885
4055.94122	0.08074
4054.01257	0.08425
4052.08393	0.08812
4050.15528	0.09092
4048.22664	0.09172
4046.29799	0.09042
4044.36935	0.08775
4042.44070	0.08498
4040.51206	0.08306
4038.58341	0.08209
4036.65476	0.08155
4034.72612	0.08098
4032.79747	0.08021
4030.86883	0.07923
4028.94018	0.07837
4027.01154	0.07825
4025.08289	0.07916
4023.15425	0.08059
4021.22560	0.08178
4019.29696	0.08244
4017.36831	0.08276
4015.43967	0.08308
4013.51102	0.08371
4011.58237	0.08487
4009.65373	0.08635
4007.72508	0.08752
4005.79644	0.08796
4003.86779	0.08805
4001.93915	0.08873
4000.01050	0.09065
3998.08186	0.09356
3996.15321	0.09647
3994.22457	0.09814
3992.29592	0.09773
3990.36728	0.09505
3988.43863	0.09095
3986.50998	0.08685
3984.58134	0.08391
3982.65269	0.08243
3980.72405	0.08186
3978.79540	0.08123
3976.86676	0.07981
3974.93811	0.07742
3973.00947	0.07465
3971.08082	0.07259
3969.15218	0.07229
3967.22353	0.07407
3965.29489	0.07732
3963.36624	0.08082
3961.43759	0.08328
3959.50895	0.08384
3957.58030	0.08233
3955.65166	0.07920
3953.72301	0.07529
3951.79437	0.07149
3949.86572	0.06857
3947.93708	0.06698
3946.00843	0.06688
3944.07979	0.06812
3942.15114	0.07037
3940.22250	0.07312
3938.29385	0.07583
3936.36521	0.07819
3934.43656	0.08011
3932.50791	0.08158
3930.57927	0.08242
3928.65062	0.08232
3926.72198	0.08103
3924.79333	0.07861
3922.86469	0.07555
3920.93604	0.07277
3919.00740	0.07122
3917.07875	0.07138
3915.15011	0.07281
3913.22146	0.07431
3911.29282	0.07456
3909.36417	0.07289
3907.43552	0.06970
3905.50688	0.06633
3903.57823	0.06438
3901.64959	0.06488
3899.72094	0.06770
3897.79230	0.07154
3895.86365	0.07463
3893.93501	0.07551
3892.00636	0.07374
3890.07772	0.06989
3888.14907	0.06523
3886.22043	0.06121
3884.29178	0.05894
3882.36313	0.05879
3880.43449	0.06041
3878.50584	0.06305
3876.57720	0.06588
3874.64855	0.06824
3872.71991	0.06982
3870.79126	0.07060
3868.86262	0.07067
3866.93397	0.06997
3865.00533	0.06821
3863.07668	0.06514
3861.14804	0.06096
3859.21939	0.05652
3857.29074	0.05305
3855.36210	0.05170
3853.43345	0.05295
3851.50481	0.05622
3849.57616	0.06001
3847.64752	0.06265
3845.71887	0.06322
3843.79023	0.06197
3841.86158	0.06006
3839.93294	0.05892
3838.00429	0.05951
3836.07565	0.06190
3834.14700	0.06519
3832.21835	0.06809
3830.28971	0.06967
3828.36106	0.06973
3826.43242	0.06881
3824.50377	0.06781
3822.57513	0.06764
3820.64648	0.06867
3818.71784	0.07060
3816.78919	0.07274
3814.86055	0.07441
3812.93190	0.07513
3811.00326	0.07470
3809.07461	0.07316
3807.14597	0.07072
3805.21732	0.06769
3803.28867	0.06454
3801.36003	0.06211
3799.43138	0.06136
3797.50274	0.06310
3795.57409	0.06757
3793.64545	0.07430
3791.71680	0.08208
3789.78816	0.08925
3787.85951	0.09426
3785.93087	0.09622
3784.00222	0.09510
3782.07358	0.09164
3780.14493	0.08719
3778.21628	0.08332
3776.28764	0.08118
3774.35899	0.08118
3772.43035	0.08300
3770.50170	0.08591
3768.57306	0.08895
3766.64441	0.09120
3764.71577	0.09205
3762.78712	0.09121
3760.85848	0.08853
3758.92983	0.08412
3757.00119	0.07851
3755.07254	0.07262
3753.14389	0.06758
3751.21525	0.06433
3749.28660	0.06336
3747.35796	0.06441
3745.42931	0.06667
3743.50067	0.06922
3741.57202	0.07133
3739.64338	0.07251
3737.71473	0.07267
3735.78609	0.07213
3733.85744	0.07156
3731.92880	0.07187
3730.00015	0.07407
3728.07150	0.07883
3726.14286	0.08594
3724.21421	0.09399
3722.28557	0.10081
3720.35692	0.10438
3718.42828	0.10377
3716.49963	0.09959
3714.57099	0.09376
3712.64234	0.08871
3710.71370	0.08631
3708.78505	0.08713
3706.85641	0.09054
3704.92776	0.09537
3702.99911	0.10053
3701.07047	0.10527
3699.14182	0.10927
3697.21318	0.11254
3695.28453	0.11523
3693.35589	0.11760
3691.42724	0.12008
3689.49860	0.12311
3687.56995	0.12685
3685.64131	0.13102
3683.71266	0.13500
3681.78402	0.13809
3679.85537	0.13998
3677.92673	0.14108
3675.99808	0.14242
3674.06943	0.14509
3672.14079	0.14981
3670.21214	0.15665
3668.28350	0.16507
3666.35485	0.17408
3664.42621	0.18260
3662.49756	0.18990
3660.56892	0.19595
3658.64027	0.20148
3656.71163	0.20780
3654.78298	0.21644
3652.85434	0.22853
3650.92569	0.24432
3648.99704	0.26285
3647.06840	0.28225
3645.13975	0.30030
3643.21111	0.31528
3641.28246	0.32660
3639.35382	0.33489
3637.42517	0.34184
3635.49653	0.34958
3633.56788	0.35980
3631.63924	0.37311
3629.71059	0.38877
3627.78195	0.40514
3625.85330	0.42054
3623.92465	0.43408
3621.99601	0.44609
3620.06736	0.45791
3618.13872	0.47100
3616.21007	0.48611
3614.28143	0.50290
3612.35278	0.52035
3610.42414	0.53751
3608.49549	0.55420
3606.56685	0.57094
3604.63820	0.58837
3602.70956	0.60664
3600.78091	0.62513
3598.85226	0.64272
3596.92362	0.65854
3594.99497	0.67270
3593.06633	0.68645
3591.13768	0.70160
3589.20904	0.71960
3587.28039	0.74077
3585.35175	0.76417
3583.42310	0.78794
3581.49446	0.80999
3579.56581	0.82886
3577.63717	0.84429
3575.70852	0.85730
3573.77988	0.86963
3571.85123	0.88312
3569.92258	0.89902
3567.99394	0.91760
3566.06529	0.93794
3564.13665	0.95835
3562.20800	0.97716
3560.27936	0.99340
3558.35071	1.00720
3556.42207	1.01973
3554.49342	1.03267
3552.56478	1.04757
3550.63613	1.06516
3548.70749	1.08523
3546.77884	1.10689
3544.85019	1.12906
3542.92155	1.15080
3540.99290	1.17138
3539.06426	1.19028
3537.13561	1.20721
3535.20697	1.22219
3533.27832	1.23560
3531.34968	1.24829
3529.42103	1.26139
3527.49239	1.27581
3525.56374	1.29170
3523.63510	1.30841
3521.70645	1.32497
3519.77780	1.34062
3517.84916	1.35521
3515.92051	1.36927
3513.99187	1.38371
3512.06322	1.39921
3510.13458	1.41578
3508.20593	1.43281
3506.27729	1.44943
3504.34864	1.46505
3502.42000	1.47958
3500.49135	1.49333
3498.56271	1.50689
3496.63406	1.52080
3494.70541	1.53537
3492.77677	1.55062
3490.84812	1.56631
3488.91948	1.58198
3486.99083	1.59710
3485.06219	1.61115
3483.13354	1.62387
3481.20490	1.63538
3479.27625	1.64616
3477.34761	1.65683
3475.41896	1.66785
3473.49032	1.67933
3471.56167	1.69107
3469.63302	1.70275
3467.70438	1.71426
3465.77573	1.72571
3463.84709	1.73729
3461.91844	1.74914
3459.98980	1.76130
3458.06115	1.77361
3456.13251	1.78576
3454.20386	1.79745
3452.27522	1.80851
3450.34657	1.81889
3448.41793	1.82861
3446.48928	1.83775
3444.56064	1.84649
3442.63199	1.85492
3440.70334	1.86298
3438.77470	1.87063
3436.84605	1.87806
3434.91741	1.88568
3432.98876	1.89390
3431.06012	1.90295
3429.13147	1.91263
3427.20283	1.92229
3425.27418	1.93106
3423.34554	1.93837
3421.41689	1.94419
3419.48825	1.94894
3417.55960	1.95318
3415.63095	1.95729
3413.70231	1.96129
3411.77366	1.96496
3409.84502	1.96808
3407.91637	1.97078
3405.98773	1.97342
3404.05908	1.97647
3402.13044	1.98017
3400.20179	1.98444
3398.27315	1.98878
3396.34450	1.99248
3394.41586	1.99497
3392.48721	1.99605
3390.55856	1.99588
3388.62992	1.99487
3386.70127	1.99353
3384.77263	1.99230
3382.84398	1.99154
3380.91534	1.99155
3378.98669	1.99251
3377.05805	1.99438
3375.12940	1.99675
3373.20076	1.99889
3371.27211	2.00000
3369.34347	1.99957
3367.41482	1.99769
3365.48617	1.99499
3363.55753	1.99230
3361.62888	1.99027
3359.70024	1.98916
3357.77159	1.98879
3355.84295	1.98873
3353.91430	1.98848
3351.98566	1.98767
3350.05701	1.98607
3348.12837	1.98360
3346.19972	1.98035
3344.27108	1.97660
3342.34243	1.97270
3340.41378	1.96897
3338.48514	1.96564
3336.55649	1.96284
3334.62785	1.96064
3332.69920	1.95906
3330.77056	1.95802
3328.84191	1.95730
3326.91327	1.95650
3324.98462	1.95527
3323.05598	1.95356
3321.12733	1.95175
3319.19869	1.95038
3317.27004	1.94985
3315.34140	1.95005
3313.41275	1.95025
3311.48410	1.94934
3309.55546	1.94646
3307.62681	1.94146
3305.69817	1.93517
3303.76952	1.92910
3301.84088	1.92474
3299.91223	1.92304
3297.98359	1.92405
3296.05494	1.92697
3294.12630	1.93048
3292.19765	1.93320
3290.26901	1.93410
3288.34036	1.93275
3286.41171	1.92920
3284.48307	1.92387
3282.55442	1.91736
3280.62578	1.91029
3278.69713	1.90311
3276.76849	1.89611
3274.83984	1.88943
3272.91120	1.88315
3270.98255	1.87726
3269.05391	1.87175
3267.12526	1.86654
3265.19662	1.86147
3263.26797	1.85632
3261.33932	1.85083
3259.41068	1.84484
3257.48203	1.83825
3255.55339	1.83102
3253.62474	1.82323
3251.69610	1.81506
3249.76745	1.80675
3247.83881	1.79861
3245.91016	1.79096
3243.98152	1.78406
3242.05287	1.77789
3240.12423	1.77210
3238.19558	1.76603
3236.26693	1.75901
3234.33829	1.75060
3232.40964	1.74085
3230.48100	1.73032
3228.55235	1.71983
3226.62371	1.71011
3224.69506	1.70133
3222.76642	1.69310
3220.83777	1.68467
3218.90913	1.67544
3216.98048	1.66528
3215.05184	1.65465
3213.12319	1.64435
3211.19455	1.63504
3209.26590	1.62687
3207.33725	1.61942
3205.40861	1.61205
3203.47996	1.60428
3201.55132	1.59608
3199.62267	1.58773
3197.69403	1.57954
3195.76538	1.57154
3193.83674	1.56349
3191.90809	1.55512
3189.97945	1.54638
3188.05080	1.53739
3186.12216	1.52831
3184.19351	1.51914
3182.26486	1.50963
3180.33622	1.49946
3178.40757	1.48848
3176.47893	1.47696
3174.55028	1.46552
3172.62164	1.45487
3170.69299	1.44550
3168.76435	1.43753
3166.83570	1.43072
3164.90706	1.42464
3162.97841	1.41886
3161.04977	1.41307
3159.12112	1.40717
3157.19247	1.40120
3155.26383	1.39504
3153.33518	1.38834
3151.40654	1.38069
3149.47789	1.37184
3147.54925	1.36197
3145.62060	1.35172
3143.69196	1.34197
3141.76331	1.33334
3139.83467	1.32574
3137.90602	1.31842
3135.97738	1.31044
3134.04873	1.30130
3132.12008	1.29125
3130.19144	1.28111
3128.26279	1.27177
3126.33415	1.26366
3124.40550	1.25649
3122.47686	1.24948
3120.54821	1.24198
3118.61957	1.23383
3116.69092	1.22541
3114.76228	1.21732
3112.83363	1.21006
3110.90499	1.20388
3108.97634	1.19870
3107.04769	1.19419
3105.11905	1.18998
3103.19040	1.18570
3101.26176	1.18106
3099.33311	1.17584
3097.40447	1.16997
3095.47582	1.16350
3093.54718	1.15657
3091.61853	1.14932
3089.68989	1.14191
3087.76124	1.13457
3085.83260	1.12764
3083.90395	1.12148
3081.97531	1.11628
3080.04666	1.11185
3078.11801	1.10764
3076.18937	1.10292
3074.26072	1.09707
3072.33208	1.08978
3070.40343	1.08116
3068.47479	1.07169
3066.54614	1.06204
3064.61750	1.05285
3062.68885	1.04460
3060.76021	1.03750
3058.83156	1.03139
3056.90292	1.02577
3054.97427	1.02000
3053.04562	1.01354
3051.11698	1.00617
3049.18833	0.99808
3047.25969	0.98973
3045.33104	0.98161
3043.40240	0.97405
3041.47375	0.96716
3039.54511	0.96089
3037.61646	0.95514
3035.68782	0.94976
3033.75917	0.94454
3031.83053	0.93917
3029.90188	0.93342
3027.97323	0.92722
3026.04459	0.92079
3024.11594	0.91453
3022.18730	0.90892
3020.25865	0.90422
3018.33001	0.90029
3016.40136	0.89667
3014.47272	0.89290
3012.54407	0.88876
3010.61543	0.88443
3008.68678	0.88032
3006.75814	0.87687
3004.82949	0.87429
3002.90084	0.87243
3000.97220	0.87091
2999.04355	0.86927
2997.11491	0.86716
2995.18626	0.86456
2993.25762	0.86172
2991.32897	0.85900
2989.40033	0.85682
2987.47168	0.85555
2985.54304	0.85555
2983.61439	0.85712
2981.68575	0.86047
2979.75710	0.86556
2977.82845	0.87194
2975.89981	0.87875
2973.97116	0.88495
2972.04252	0.88967
2970.11387	0.89262
2968.18523	0.89435
2966.25658	0.89591
2964.32794	0.89819
2962.39929	0.90139
2960.47065	0.90486
2958.54200	0.90731
2956.61336	0.90744
2954.68471	0.90467
2952.75607	0.89947
2950.82742	0.89309
2948.89877	0.88718
2946.97013	0.88322
2945.04148	0.88228
2943.11284	0.88494
2941.18419	0.89116
2939.25555	0.90034
2937.32690	0.91142
2935.39826	0.92313
2933.46961	0.93417
2931.54097	0.94342
2929.61232	0.95002
2927.68368	0.95326
2925.75503	0.95231
2923.82638	0.94646
2921.89774	0.93570
2919.96909	0.92091
2918.04045	0.90372
2916.11180	0.88601
2914.18316	0.86918
2912.25451	0.85360
2910.32587	0.83873
2908.39722	0.82395
2906.46858	0.80915
2904.53993	0.79476
2902.61129	0.78152
2900.68264	0.77010
2898.75399	0.76075
2896.82535	0.75332
2894.89670	0.74740
2892.96806	0.74251
2891.03941	0.73814
2889.11077	0.73390
2887.18212	0.72946
2885.25348	0.72462
2883.32483	0.71956
2881.39619	0.71489
2879.46754	0.71112
2877.53890	0.70816
2875.61025	0.70549
2873.68160	0.70241
2871.75296	0.69839
2869.82431	0.69331
2867.89567	0.68786
2865.96702	0.68349
2864.03838	0.68174
2862.10973	0.68340
2860.18109	0.68819
2858.25244	0.69478
2856.32380	0.70104
2854.39515	0.70448
2852.46651	0.70295
2850.53786	0.69533
2848.60922	0.68187
2846.68057	0.66420
2844.75192	0.64487
2842.82328	0.62665
2840.89463	0.61160
2838.96599	0.60045
2837.03734	0.59243
2835.10870	0.58581
2833.18005	0.57895
2831.25141	0.57110
2829.32276	0.56256
2827.39412	0.55427
2825.46547	0.54727
2823.53683	0.54219
2821.60818	0.53892
2819.67953	0.53673
2817.75089	0.53469
2815.82224	0.53208
2813.89360	0.52854
2811.96495	0.52410
2810.03631	0.51920
2808.10766	0.51442
2806.17902	0.51029
2804.25037	0.50707
2802.32173	0.50460
2800.39308	0.50242
2798.46444	0.50008
2796.53579	0.49741
2794.60714	0.49457
2792.67850	0.49184
2790.74985	0.48955
2788.82121	0.48792
2786.89256	0.48680
2784.96392	0.48579
2783.03527	0.48456
2781.10663	0.48296
2779.17798	0.48103
2777.24934	0.47892
2775.32069	0.47691
2773.39205	0.47512
2771.46340	0.47349
2769.53475	0.47181
2767.60611	0.46979
2765.67746	0.46714
2763.74882	0.46375
2761.82017	0.45987
2759.89153	0.45591
2757.96288	0.45236
2756.03424	0.44965
2754.10559	0.44793
2752.17695	0.44692
2750.24830	0.44609
2748.31966	0.44488
2746.39101	0.44282
2744.46236	0.43980
2742.53372	0.43620
2740.60507	0.43271
2738.67643	0.42988
2736.74778	0.42794
2734.81914	0.42688
2732.89049	0.42634
2730.96185	0.42572
2729.03320	0.42457
2727.10456	0.42288
2725.17591	0.42078
2723.24727	0.41835
2721.31862	0.41562
2719.38998	0.41279
2717.46133	0.41008
2715.53268	0.40769
2713.60404	0.40585
2711.67539	0.40474
2709.74675	0.40428
2707.81810	0.40398
2705.88946	0.40322
2703.96081	0.40161
2702.03217	0.39905
2700.10352	0.39567
2698.17488	0.39189
2696.24623	0.38831
2694.31759	0.38546
2692.38894	0.38344
2690.46029	0.38207
2688.53165	0.38103
2686.60300	0.37999
2684.67436	0.37862
2682.74571	0.37681
2680.81707	0.37463
2678.88842	0.37228
2676.95978	0.36984
2675.03113	0.36743
2673.10249	0.36529
2671.17384	0.36379
2669.24520	0.36313
2667.31655	0.36314
2665.38790	0.36334
2663.45926	0.36301
2661.53061	0.36152
2659.60197	0.35877
2657.67332	0.35530
2655.74468	0.35195
2653.81603	0.34936
2651.88739	0.34780
2649.95874	0.34703
2648.03010	0.34626
2646.10145	0.34470
2644.17281	0.34224
2642.24416	0.33947
2640.31551	0.33712
2638.38687	0.33571
2636.45822	0.33542
2634.52958	0.33584
2632.60093	0.33600
2630.67229	0.33488
2628.74364	0.33212
2626.81500	0.32830
2624.88635	0.32446
2622.95771	0.32153
2621.02906	0.31980
2619.10042	0.31899
2617.17177	0.31851
2615.24312	0.31790
2613.31448	0.31709
2611.38583	0.31637
2609.45719	0.31604
2607.52854	0.31602
2605.59990	0.31577
2603.67125	0.31443
2601.74261	0.31135
2599.81396	0.30664
2597.88532	0.30135
2595.95667	0.29690
2594.02803	0.29453
2592.09938	0.29501
2590.17074	0.29826
2588.24209	0.30281
2586.31344	0.30629
2584.38480	0.30704
2582.45615	0.30503
2580.52751	0.30140
2578.59886	0.29771
2576.67022	0.29547
2574.74157	0.29539
2572.81293	0.29682
2570.88428	0.29821
2568.95564	0.29832
2567.02699	0.29687
2565.09835	0.29421
2563.16970	0.29100
2561.24105	0.28783
2559.31241	0.28491
2557.38376	0.28211
2555.45512	0.27919
2553.52647	0.27602
2551.59783	0.27286
2549.66918	0.27052
2547.74054	0.26995
2545.81189	0.27152
2543.88325	0.27458
2541.95460	0.27806
2540.02596	0.28114
2538.09731	0.28355
2536.16866	0.28552
2534.24002	0.28743
2532.31137	0.28924
2530.38273	0.29032
2528.45408	0.28975
2526.52544	0.28737
2524.59679	0.28440
2522.66815	0.28289
2520.73950	0.28414
2518.81086	0.28774
2516.88221	0.29188
2514.95357	0.29419
2513.02492	0.29276
2511.09627	0.28718
2509.16763	0.27893
2507.23898	0.27065
2505.31034	0.26493
2503.38169	0.26350
2501.45305	0.26688
2499.52440	0.27389
2497.59576	0.28184
2495.66711	0.28779
2493.73847	0.28988
2491.80982	0.28809
2489.88118	0.28382
2487.95253	0.27910
2486.02389	0.27554
2484.09524	0.27337
2482.16659	0.27171
2480.23795	0.26979
2478.30930	0.26779
2476.38066	0.26642
2474.45201	0.26612
2472.52337	0.26705
2470.59472	0.26917
2468.66608	0.27199
2466.73743	0.27471
2464.80879	0.27692
2462.88014	0.27884
2460.95150	0.28047
2459.02285	0.28140
2457.09420	0.28149
2455.16556	0.28115
2453.23691	0.28077
2451.30827	0.28028
2449.37962	0.27949
2447.45098	0.27839
2445.52233	0.27706
2443.59369	0.27559
2441.66504	0.27441
2439.73640	0.27425
2437.80775	0.27579
2435.87911	0.27899
2433.95046	0.28292
2432.02181	0.28631
2430.09317	0.28824
2428.16452	0.28836
2426.23588	0.28676
2424.30723	0.28391
2422.37859	0.28052
2420.44994	0.27723
2418.52130	0.27447
2416.59265	0.27267
2414.66401	0.27233
2412.73536	0.27383
2410.80672	0.27701
2408.87807	0.28094
2406.94942	0.28437
2405.02078	0.28632
2403.09213	0.28633
2401.16349	0.28447
2399.23484	0.28130
2397.30620	0.27791
2395.37755	0.27545
2393.44891	0.27459
2391.52026	0.27530
2389.59162	0.27704
2387.66297	0.27898
2385.73433	0.28027
2383.80568	0.28041
2381.87703	0.27927
2379.94839	0.27682
2378.01974	0.27266
2376.09110	0.26626
2374.16245	0.25767
2372.23381	0.24824
2370.30516	0.24054
2368.37652	0.23736
2366.44787	0.24036
2364.51923	0.24908
2362.59058	0.26087
2360.66194	0.27198
2358.73329	0.27950
2356.80465	0.28270
2354.87600	0.28266
2352.94735	0.28102
2351.01871	0.27881
2349.09006	0.27627
2347.16142	0.27309
2345.23277	0.26897
2343.30413	0.26451
2341.37548	0.26109
2339.44684	0.25985
2337.51819	0.26093
2335.58955	0.26340
2333.66090	0.26590
2331.73226	0.26723
2329.80361	0.26669
2327.87496	0.26438
2325.94632	0.26099
2324.01767	0.25739
2322.08903	0.25435
2320.16038	0.25239
2318.23174	0.25159
2316.30309	0.25160
2314.37445	0.25192
2312.44580	0.25218
2310.51716	0.25238
2308.58851	0.25277
2306.65987	0.25372
2304.73122	0.25541
2302.80257	0.25754
2300.87393	0.25929
2298.94528	0.25973
2297.01664	0.25838
2295.08799	0.25537
2293.15935	0.25123
2291.23070	0.24670
2289.30206	0.24251
2287.37341	0.23925
2285.44477	0.23727
2283.51612	0.23681
2281.58748	0.23809
2279.65883	0.24095
2277.73018	0.24448
2275.80154	0.24718
2273.87289	0.24767
2271.94425	0.24536
2270.01560	0.24074
2268.08696	0.23517
2266.15831	0.23045
2264.22967	0.22802
2262.30102	0.22846
2260.37238	0.23156
2258.44373	0.23706
2256.51509	0.24460
2254.58644	0.25304
2252.65779	0.26044
2250.72915	0.26528
2248.80050	0.26725
2246.87186	0.26686
2244.94321	0.26484
2243.01457	0.26222
2241.08592	0.25902
2239.15728	0.25288
2237.22863	0.24092
2235.29999	0.22371
2233.37134	0.20593
2231.44270	0.19306
2229.51405	0.18842
2227.58541	0.19230
2225.65676	0.20102
2223.72811	0.20761
2221.79947	0.20646
2219.87082	0.19795
2217.94218	0.18760
2216.01353	0.18153
2214.08489	0.18296
2212.15624	0.19076
2210.22760	0.19974
2208.29895	0.20290
2206.37031	0.19484
2204.44166	0.17499
2202.51302	0.14890
2200.58437	0.12628
2198.65572	0.11650
2196.72708	0.12440
2194.79843	0.14768
2192.86979	0.17703
2190.94114	0.20006
2189.01250	0.20766
2187.08385	0.19778
2185.15521	0.17458
2183.22656	0.14513
2181.29792	0.11577
2179.36927	0.08988
2177.44063	0.06887
2175.51198	0.05488
2173.58333	0.05010
2171.65469	0.05309
2169.72604	0.05777
2167.79740	0.05597
2165.86875	0.04258
2163.94011	0.02063
2162.01146	0.00172
2160.08282	0.00000
2158.15417	0.02352
2156.22553	0.06910
2154.29688	0.12289
2152.36824	0.16646
2150.43959	0.18688
2148.51094	0.18297
2146.58230	0.16257
2144.65365	0.13669
2142.72501	0.11532
2140.79636	0.10442
2138.86772	0.10426
2136.93907	0.11160
2135.01043	0.12409
2133.08178	0.14105
2131.15314	0.16103
2129.22449	0.18132
2127.29585	0.19881
2125.36720	0.21024
2123.43856	0.21282
2121.50991	0.20606
2119.58126	0.19289
2117.65262	0.17826
2115.72397	0.16700
2113.79533	0.16236
2111.86668	0.16516
2109.93804	0.17371
2108.00939	0.18465
2106.08075	0.19452
2104.15210	0.20111
2102.22346	0.20376
2100.29481	0.20296
2098.36617	0.19980
2096.43752	0.19546
2094.50887	0.19098
2092.58023	0.18731
2090.65158	0.18532
2088.72294	0.18564
2086.79429	0.18827
2084.86565	0.19236
2082.93700	0.19655
2081.00836	0.19960
2079.07971	0.20113
2077.15107	0.20171
2075.22242	0.20242
2073.29378	0.20425
2071.36513	0.20766
2069.43648	0.21250
2067.50784	0.21810
2065.57919	0.22365
2063.65055	0.22850
2061.72190	0.23202
2059.79326	0.23329
2057.86461	0.23123
2055.93597	0.22532
2054.00732	0.21614
2052.07868	0.20545
2050.15003	0.19554
2048.22139	0.18795
2046.29274	0.18260
2044.36409	0.17805
2042.43545	0.17248
2040.50680	0.16464
2038.57816	0.15416
2036.64951	0.14152
2034.72087	0.12739
2032.79222	0.11212
2030.86358	0.09632
2028.93493	0.08247
2027.00629	0.07518
2025.07764	0.07875
2023.14900	0.09392
2021.22035	0.11618
2019.29170	0.13700
2017.36306	0.14716
2015.43441	0.14131
2013.50577	0.12164
2011.57712	0.09769
2009.64848	0.08177
2007.71983	0.08269
2005.79119	0.10163
2003.86254	0.13248
2001.93390	0.16606
2000.00525	0.19343
1998.07661	0.20947
1996.14796	0.21375
1994.21932	0.20910
1992.29067	0.19913
1990.36202	0.18696
1988.43338	0.17567
1986.50473	0.16863
1984.57609	0.16853
1982.64744	0.17579
1980.71880	0.18762
1978.79015	0.19888
1976.86151	0.20425
1974.93286	0.20111
1973.00422	0.19122
1971.07557	0.18003
1969.14693	0.17372
1967.21828	0.17581
1965.28963	0.18536
1963.36099	0.19795
1961.43234	0.20827
1959.50370	0.21265
1957.57505	0.21026
1955.64641	0.20310
1953.71776	0.19472
1951.78912	0.18844
1949.86047	0.18595
1947.93183	0.18714
1946.00318	0.19084
1944.07454	0.19557
1942.14589	0.20015
1940.21724	0.20411
1938.28860	0.20774
1936.35995	0.21171
1934.43131	0.21627
1932.50266	0.22094
1930.57402	0.22473
1928.64537	0.22660
1926.71673	0.22585
1924.78808	0.22229
1922.85944	0.21630
1920.93079	0.20874
1919.00215	0.20076
1917.07350	0.19367
1915.14485	0.18883
1913.21621	0.18738
1911.28756	0.18982
1909.35892	0.19565
1907.43027	0.20333
1905.50163	0.21072
1903.57298	0.21571
1901.64434	0.21689
1899.71569	0.21404
1897.78705	0.20815
1895.85840	0.20101
1893.92976	0.19456
1892.00111	0.19034
1890.07246	0.18927
1888.14382	0.19141
1886.21517	0.19586
1884.28653	0.20107
1882.35788	0.20526
1880.42924	0.20689
1878.50059	0.20513
1876.57195	0.20021
1874.64330	0.19351
1872.71466	0.18700
1870.78601	0.18243
1868.85737	0.18071
1866.92872	0.18165
1865.00008	0.18417
1863.07143	0.18689
1861.14278	0.18880
1859.21414	0.18963
1857.28549	0.18977
1855.35685	0.18999
1853.42820	0.19099
1851.49956	0.19311
1849.57091	0.19616
1847.64227	0.19959
1845.71362	0.20265
1843.78498	0.20467
1841.85633	0.20519
1839.92769	0.20413
1837.99904	0.20184
1836.07039	0.19895
1834.14175	0.19613
1832.21310	0.19395
1830.28446	0.19272
1828.35581	0.19246
1826.42717	0.19298
1824.49852	0.19395
1822.56988	0.19509
1820.64123	0.19621
1818.71259	0.19726
1816.78394	0.19837
1814.85530	0.19983
1812.92665	0.20182
1810.99800	0.20433
1809.06936	0.20707
1807.14071	0.20949
1805.21207	0.21095
1803.28342	0.21097
1801.35478	0.20955
1799.42613	0.20716
1797.49749	0.20463
1795.56884	0.20282
1793.64020	0.20245
1791.71155	0.20379
1789.78291	0.20661
1787.85426	0.21031
1785.92561	0.21421
1783.99697	0.21780
1782.06832	0.22081
1780.13968	0.22323
1778.21103	0.22519
1776.28239	0.22691
1774.35374	0.22855
1772.42510	0.23028
1770.49645	0.23236
1768.56781	0.23513
1766.63916	0.23883
1764.71052	0.24352
1762.78187	0.24897
1760.85322	0.25480
1758.92458	0.26069
1756.99593	0.26659
1755.06729	0.27283
1753.13864	0.27996
1751.21000	0.28843
1749.28135	0.29835
1747.35271	0.30928
1745.42406	0.32047
1743.49542	0.33110
1741.56677	0.34068
1739.63813	0.34923
1737.70948	0.35719
1735.78084	0.36528
1733.85219	0.37419
1731.92354	0.38420
1729.99490	0.39498
1728.06625	0.40576
1726.13761	0.41566
1724.20896	0.42421
1722.28032	0.43163
1720.35167	0.43886
1718.42303	0.44719
1716.49438	0.45767
1714.56574	0.47050
1712.63709	0.48493
1710.70845	0.49977
1708.77980	0.51402
1706.85115	0.52752
1704.92251	0.54112
1702.99386	0.55643
1701.06522	0.57525
1699.13657	0.59870
1697.20793	0.62664
1695.27928	0.65770
1693.35064	0.68988
1691.42199	0.72144
1689.49335	0.75149
1687.56470	0.78027
1685.63606	0.80884
1683.70741	0.83833
1681.77876	0.86928
1679.85012	0.90141
1677.92147	0.93402
1675.99283	0.96655
1674.06418	0.99881
1672.13554	1.03102
1670.20689	1.06358
1668.27825	1.09661
1666.34960	1.12960
1664.42096	1.16127
1662.49231	1.19007
1660.56367	1.21472
1658.63502	1.23464
1656.70637	1.25023
1654.77773	1.26283
1652.84908	1.27428
1650.92044	1.28599
1648.99179	1.29827
1647.06315	1.31039
1645.13450	1.32102
1643.20586	1.32895
1641.27721	1.33366
1639.34857	1.33549
1637.41992	1.33530
1635.49128	1.33380
1633.56263	1.33101
1631.63399	1.32617
1629.70534	1.31821
1627.77669	1.30636
1625.84805	1.29057
1623.91940	1.27167
1621.99076	1.25118
1620.06211	1.23089
1618.13347	1.21235
1616.20482	1.19650
1614.27618	1.18354
1612.34753	1.17305
1610.41889	1.16432
1608.49024	1.15663
1606.56160	1.14943
1604.63295	1.14236
1602.70430	1.13523
1600.77566	1.12790
1598.84701	1.12016
1596.91837	1.11178
1594.98972	1.10263
1593.06108	1.09270
1591.13243	1.08201
1589.20379	1.07052
1587.27514	1.05815
1585.34650	1.04488
1583.41785	1.03085
1581.48921	1.01651
1579.56056	1.00251
1577.63191	0.98966
1575.70327	0.97859
1573.77462	0.96940
1571.84598	0.96147
1569.91733	0.95364
1567.98869	0.94472
1566.06004	0.93403
1564.13140	0.92182
1562.20275	0.90928
1560.27411	0.89814
1558.34546	0.88974
1556.41682	0.88418
1554.48817	0.88013
1552.55952	0.87524
1550.63088	0.86711
1548.70223	0.85425
1546.77359	0.83668
1544.84494	0.81591
1542.91630	0.79433
1540.98765	0.77430
1539.05901	0.75733
1537.13036	0.74378
1535.20172	0.73294
1533.27307	0.72358
1531.34443	0.71460
1529.41578	0.70546
1527.48713	0.69636
1525.55849	0.68793
1523.62984	0.68075
1521.70120	0.67470
1519.77255	0.66876
1517.84391	0.66119
1515.91526	0.65032
1513.98662	0.63529
1512.05797	0.61656
1510.12933	0.59578
1508.20068	0.57512
1506.27204	0.55651
1504.34339	0.54089
1502.41475	0.52803
1500.48610	0.51692
1498.55745	0.50647
1496.62881	0.49601
1494.70016	0.48547
1492.77152	0.47530
1490.84287	0.46622
1488.91423	0.45891
1486.98558	0.45371
1485.05694	0.45071
1483.12829	0.44992
1481.19965	0.45153
1479.27100	0.45600
1477.34236	0.46386
1475.41371	0.47542
1473.48506	0.49042
1471.55642	0.50781
1469.62777	0.52575
1467.69913	0.54209
1465.77048	0.55509
1463.84184	0.56398
1461.91319	0.56902
1459.98455	0.57126
1458.05590	0.57205
1456.12726	0.57257
1454.19861	0.57332
1452.26997	0.57410
1450.34132	0.57437
1448.41267	0.57358
1446.48403	0.57157
1444.55538	0.56865
1442.62674	0.56569
1440.69809	0.56385
1438.76945	0.56428
1436.84080	0.56775
1434.91216	0.57450
1432.98351	0.58421
1431.05487	0.59624
1429.12622	0.60988
1427.19758	0.62461
1425.26893	0.64009
1423.34028	0.65614
1421.41164	0.67262
1419.48299	0.68935
1417.55435	0.70602
1415.62570	0.72226
1413.69706	0.73761
1411.76841	0.75159
1409.83977	0.76360
1407.91112	0.77298
1405.98248	0.77912
1404.05383	0.78165
1402.12519	0.78052
1400.19654	0.77615
1398.26789	0.76938
1396.33925	0.76140
1394.41060	0.75345
1392.48196	0.74649
1390.55331	0.74099
1388.62467	0.73678
1386.69602	0.73321
1384.76738	0.72943
1382.83873	0.72469
1380.91009	0.71865
1378.98144	0.71138
1377.05280	0.70330
1375.12415	0.69484
1373.19551	0.68630
1371.26686	0.67779
1369.33821	0.66931
1367.40957	0.66088
1365.48092	0.65262
1363.55228	0.64475
1361.62363	0.63743
1359.69499	0.63068
1357.76634	0.62428
1355.83770	0.61796
1353.90905	0.61151
1351.98041	0.60489
1350.05176	0.59827
1348.12312	0.59187
1346.19447	0.58587
1344.26582	0.58029
1342.33718	0.57501
1340.40853	0.56990
1338.47989	0.56486
1336.55124	0.55990
1334.62260	0.55512
1332.69395	0.55061
1330.76531	0.54641
1328.83666	0.54256
1326.90802	0.53910
1324.97937	0.53615
1323.05073	0.53379
1321.12208	0.53201
1319.19343	0.53054
1317.26479	0.52894
1315.33614	0.52671
1313.40750	0.52357
1311.47885	0.51964
1309.55021	0.51548
1307.62156	0.51190
1305.69292	0.50961
1303.76427	0.50893
1301.83563	0.50968
1299.90698	0.51130
1297.97834	0.51318
1296.04969	0.51491
1294.12104	0.51650
1292.19240	0.51830
1290.26375	0.52074
1288.33511	0.52401
1286.40646	0.52796
1284.47782	0.53201
1282.54917	0.53549
1280.62053	0.53793
1278.69188	0.53936
1276.76324	0.54036
1274.83459	0.54175
1272.90595	0.54420
1270.97730	0.54790
1269.04866	0.55249
1267.12001	0.55720
1265.19136	0.56123
1263.26272	0.56407
1261.33407	0.56566
1259.40543	0.56630
1257.47678	0.56643
1255.54814	0.56641
1253.61949	0.56644
1251.69085	0.56651
1249.76220	0.56648
1247.83356	0.56620
1245.90491	0.56561
1243.97627	0.56474
1242.04762	0.56370
1240.11897	0.56257
1238.19033	0.56134
1236.26168	0.55994
1234.33304	0.55829
1232.40439	0.55644
1230.47575	0.55452
1228.54710	0.55271
1226.61846	0.55107
1224.68981	0.54946
1222.76117	0.54756
1220.83252	0.54509
1218.90388	0.54195
1216.97523	0.53834
1215.04658	0.53468
1213.11794	0.53141
1211.18929	0.52892
1209.26065	0.52735
1207.33200	0.52659
1205.40336	0.52631
1203.47471	0.52610
1201.54607	0.52565
1199.61742	0.52494
1197.68878	0.52442
1195.76013	0.52490
1193.83149	0.52720
1191.90284	0.53182
1189.97419	0.53889
1188.04555	0.54824
1186.11690	0.55973
1184.18826	0.57341
1182.25961	0.58957
1180.33097	0.60837
1178.40232	0.62951
1176.47368	0.65227
1174.54503	0.67580
1172.61639	0.69949
1170.68774	0.72328
1168.75910	0.74758
1166.83045	0.77294
1164.90180	0.79946
1162.97316	0.82660
1161.04451	0.85336
1159.11587	0.87891
1157.18722	0.90297
1155.25858	0.92598
1153.32993	0.94889
1151.40129	0.97277
1149.47264	0.99820
1147.54400	1.02510
1145.61535	1.05321
1143.68671	1.08260
1141.75806	1.11365
1139.82942	1.14662
1137.90077	1.18141
1135.97212	1.21751
1134.04348	1.25392
1132.11483	1.28947
1130.18619	1.32355
1128.25754	1.35613
1126.32890	1.38720
1124.40025	1.41635
1122.47161	1.44294
1120.54296	1.46640
1118.61432	1.48647
1116.68567	1.50368
1114.75703	1.51938
1112.82838	1.53513
1110.89973	1.55179
1108.97109	1.56925
1107.04244	1.58658
1105.11380	1.60267
1103.18515	1.61686
1101.25651	1.62943
1099.32786	1.64147
1097.39922	1.65418
1095.47057	1.66813
1093.54193	1.68283
1091.61328	1.69685
1089.68464	1.70861
1087.75599	1.71709
1085.82734	1.72191
1083.89870	1.72295
1081.97005	1.72029
1080.04141	1.71408
1078.11276	1.70445
1076.18412	1.69154
1074.25547	1.67574
1072.32683	1.65768
1070.39818	1.63759
1068.46954	1.61509
1066.54089	1.58969
1064.61225	1.56141
1062.68360	1.53074
1060.75495	1.49851
1058.82631	1.46564
1056.89766	1.43274
1054.96902	1.39970
1053.04037	1.36594
1051.11173	1.33123
1049.18308	1.29618
1047.25444	1.26200
1045.32579	1.23008
1043.39715	1.20132
1041.46850	1.17571
1039.53986	1.15233
1037.61121	1.12986
1035.68256	1.10726
1033.75392	1.08401
1031.82527	1.06007
1029.89663	1.03557
1027.96798	1.01059
1026.03934	0.98501
1024.11069	0.95895
1022.18205	0.93302
1020.25340	0.90824
1018.32476	0.88564
1016.39611	0.86587
1014.46747	0.84891
1012.53882	0.83412
1010.61018	0.82080
1008.68153	0.80869
1006.75288	0.79803
1004.82424	0.78947
1002.89559	0.78385
1000.96695	0.78169
999.03830	0.78278
997.10966	0.78637
995.18101	0.79172
993.25237	0.79811
991.32372	0.80459
989.39508	0.81002
987.46643	0.81322
985.53779	0.81294
983.60914	0.80776
981.68049	0.79659
979.75185	0.77916
977.82320	0.75616
975.89456	0.72896
973.96591	0.69937
972.03727	0.66933
970.10862	0.64049
968.17998	0.61387
966.25133	0.58995
964.32269	0.56877
962.39404	0.54999
960.46540	0.53312
958.53675	0.51767
956.60810	0.50313
954.67946	0.48897
952.75081	0.47492
950.82217	0.46109
948.89352	0.44775
946.96488	0.43530
945.03623	0.42443
943.10759	0.41584
941.17894	0.40982
939.25030	0.40623
937.32165	0.40478
935.39301	0.40471
933.46436	0.40468
931.53571	0.40370
929.60707	0.40186
927.67842	0.39986
925.74978	0.39837
923.82113	0.39792
921.89249	0.39864
919.96384	0.39962
918.03520	0.39912
916.10655	0.39597
914.17791	0.39073
912.24926	0.38522
910.32062	0.38143
908.39197	0.38056
906.46333	0.38248
904.53468	0.38585
902.60603	0.38898
900.67739	0.39107
898.74874	0.39283
896.82010	0.39589
894.89145	0.40153
892.96281	0.40947
891.03416	0.41782
889.10552	0.42431
887.17687	0.42776
885.24823	0.42880
883.31958	0.42932
881.39094	0.43133
879.46229	0.43602
877.53364	0.44323
875.60500	0.45158
873.67635	0.45919
871.74771	0.46467
869.81906	0.46774
867.89042	0.46878
865.96177	0.46821
864.03313	0.46657
862.10448	0.46480
860.17584	0.46380
858.24719	0.46384
856.31855	0.46455
854.38990	0.46551
852.46125	0.46645
850.53261	0.46707
848.60396	0.46707
846.67532	0.46629
844.74667	0.46480
842.81803	0.46251
840.88938	0.45899
838.96074	0.45368
837.03209	0.44647
835.10345	0.43774
833.17480	0.42811
831.24616	0.41856
829.31751	0.41068
827.38886	0.40606
825.46022	0.40510
823.53157	0.40674
821.60293	0.40922
819.67428	0.41109
817.74564	0.41183
815.81699	0.41198
813.88835	0.41260
811.95970	0.41448
810.03106	0.41748
808.10241	0.42070
806.17377	0.42323
804.24512	0.42471
802.31647	0.42544
800.38783	0.42609
798.45918	0.42731
796.53054	0.42951
794.60189	0.43268
792.67325	0.43648
790.74460	0.44044
788.81596	0.44396
786.88731	0.44641
784.95867	0.44753
783.03002	0.44772
781.10138	0.44778
779.17273	0.44800
777.24409	0.44770
775.31544	0.44573
773.38679	0.44159
771.45815	0.43597
769.52950	0.43076
767.60086	0.42845
765.67221	0.43082
763.74357	0.43757
761.81492	0.44646
759.88628	0.45462
757.95763	0.45989
756.02899	0.46159
754.10034	0.46104
752.17170	0.46068
750.24305	0.46197
748.31440	0.46449
746.38576	0.46693
744.45711	0.46804
742.52847	0.46700
740.59982	0.46400
738.67118	0.46085
736.74253	0.45997
734.81389	0.46253
732.88524	0.46806
730.95660	0.47538
729.02795	0.48346
727.09931	0.49139
725.17066	0.49821
723.24201	0.50311
721.31337	0.50573
719.38472	0.50608
717.45608	0.50463
715.52743	0.50248
713.59879	0.50124
711.67014	0.50221
709.74150	0.50554
707.81285	0.51025
705.88421	0.51497
703.95556	0.51858
702.02692	0.52062
700.09827	0.52134
698.16962	0.52147
696.24098	0.52174
694.31233	0.52250
692.38369	0.52361
690.45504	0.52463
688.52640	0.52513
686.59775	0.52493
684.66911	0.52428
682.74046	0.52376
680.81182	0.52440
678.88317	0.52756
676.95453	0.53426
675.02588	0.54449
673.09723	0.55702
671.16859	0.56957
669.23994	0.57942
667.31130	0.58436
665.38265	0.58392
663.45401	0.57958
661.52536	0.57374
659.59672	0.56877
657.66807	0.56628
655.73943	0.56680
653.81078	0.56978
651.88214	0.57408
649.95349	0.57870
648.02485	0.58286
646.09620	0.58589
644.16755	0.58744
642.23891	0.58765
640.31026	0.58716
638.38162	0.58698
636.45297	0.58842
634.52433	0.59292
632.59568	0.60155
630.66704	0.61420
628.73839	0.62904
626.80975	0.64289
624.88110	0.65208
622.95246	0.65282
621.02381	0.64197
619.09516	0.61896
617.16652	0.58739
615.23787	0.55469
613.30923	0.53023
611.38058	0.52299
609.45194	0.53841
607.52329	0.57485
605.59465	0.62307
603.66600	0.67014
601.73736	0.70465
599.80871	0.72051
597.88007	0.71826
595.95142	0.70398
594.02277	0.68604
592.09413	0.67128
590.16548	0.66295
588.23684	0.66095
586.30819	0.66306
584.37955	0.66632
582.45090	0.66841
580.52226	0.66830
578.59361	0.66651
576.66497	0.66471
574.73632	0.66510
572.80768	0.66962
570.87903	0.67912
568.95038	0.69311
567.02174	0.70997
565.09309	0.72763
563.16445	0.74391
561.23580	0.75702
559.30716	0.76589
557.37851	0.77050
555.44987	0.77210
553.52122	0.77316
551.59258	0.77702
549.66393	0.78664
547.73529	0.80310
545.80664	0.82475
543.87800	0.84733
541.94935	0.86524
540.02070	0.87360
538.09206	0.87024
536.16341	0.85664
534.23477	0.83719
532.30612	0.81725
530.37748	0.80098
528.44883	0.79008
526.52019	0.78348
524.59154	0.77817
522.66290	0.77079
520.73425	0.75919
518.80561	0.74319
516.87696	0.72413
514.94831	0.70394
513.01967	0.68428
511.09102	0.66593
509.16238	0.64869
507.23373	0.63188
505.30509	0.61499
503.37644	0.59813
501.44780	0.58184
499.51915	0.56679
497.59051	0.55352
495.66186	0.54232
493.73322	0.53336
491.80457	0.52671
489.87592	0.52232
487.94728	0.51985
486.01863	0.51871
484.08999	0.51824
482.16134	0.51815
480.23270	0.51864
478.30405	0.52037
476.37541	0.52382
474.44676	0.52849
472.51812	0.53262
470.58947	0.53359
468.66083	0.52917
466.73218	0.51873
464.80353	0.50383
462.87489	0.48769
460.94624	0.47400
459.01760	0.46548
457.08895	0.46274
455.16031	0.46413
453.23166	0.46675
451.30302	0.46793
449.37437	0.46611
447.44573	0.46108
445.51708	0.45358
443.58844	0.44462
441.65979	0.43481
439.73114	0.42411
437.80250	0.41233
435.87385	0.39968
433.94521	0.38695
432.01656	0.37521
430.08792	0.36546
428.15927	0.35815
426.23063	0.35305
424.30198	0.34939
422.37334	0.34628
420.44469	0.34298
418.51605	0.33906
416.58740	0.33461
414.65876	0.33021
412.73011	0.32654
410.80146	0.32389
408.87282	0.32181
406.94417	0.31914
405.01553	0.31441
403.08688	0.30652
401.15824	0.29543
399.22959	0.28252
397.30095	0.26996
395.37230	0.25953
393.44366	0.25174
391.51501	0.24570
389.58637	0.23981
387.65772	0.23252
385.72907	0.22326
383.80043	0.21267
381.87178	0.20223
379.94314	0.19326
378.01449	0.18648
376.08585	0.18195
374.15720	0.17940
372.22856	0.17861
370.29991	0.17952
368.37127	0.18200
366.44262	0.18542
364.51398	0.18868
362.58533	0.19068
360.65668	0.19081
358.72804	0.18923
356.79939	0.18668
354.87075	0.18380
352.94210	0.18053
351.01346	0.17595
349.08481	0.16890
347.15617	0.15899
345.22752	0.14710
343.29888	0.13521
341.37023	0.12533
339.44159	0.11868
337.51294	0.11539
335.58429	0.11471
333.65565	0.11559
331.72700	0.11716
329.79836	0.11887
327.86971	0.12009
325.94107	0.11978
324.01242	0.11675
322.08378	0.11050
320.15513	0.10169
318.22649	0.09201
316.29784	0.08347
314.36920	0.07780
312.44055	0.07607
310.51190	0.07865
308.58326	0.08538
306.65461	0.09494
304.72597	0.10544
302.79732	0.11474
300.86868	0.12092
298.94003	0.12309
297.01139	0.12174
295.08274	0.11800
293.15410	0.11263
291.22545	0.10570
289.29681	0.09741
287.36816	0.08909
285.43952	0.08356
283.51087	0.08429
281.58222	0.09327
279.65358	0.10875
277.72493	0.12518
275.79629	0.13586
273.86764	0.13640
271.93900	0.12704
270.01035	0.11275
268.08171	0.10114
266.15306	0.09910
264.22442	0.10990
262.29577	0.13209
260.36713	0.16055
258.43848	0.18856
256.50983	0.21021
254.58119	0.22215
252.65254	0.22456
250.72390	0.22075
248.79525	0.21573
246.86661	0.21415
244.93796	0.21877
243.00932	0.22978
241.08067	0.24519
239.15203	0.26178
237.22338	0.27662
235.29474	0.28800
233.36609	0.29568
231.43744	0.30072
229.50880	0.30529
227.58015	0.31191
225.65151	0.32220
223.72286	0.33629
221.79422	0.35300
219.86557	0.37017
217.93693	0.38528
216.00828	0.39645
214.07964	0.40325
212.15099	0.40643
210.22235	0.40680
208.29370	0.40444
206.36505	0.39894
204.43641	0.39064
202.50776	0.38241
200.57912	0.37977
198.65047	0.38860
196.72183	0.41162
194.79318	0.44573
192.86454	0.48166
190.93589	0.50735
189.00725	0.51474
187.07860	0.50543
185.14996	0.49026
183.22131	0.48321
181.29267	0.49462
179.36402	0.52694
177.43537	0.57444
175.50673	0.62735
173.57808	0.67853
171.64944	0.72729
169.72079	0.77705
167.79215	0.83052
165.86350	0.88695
163.93486	0.94295
162.00621	1.00330
160.07757	1.05812
158.14892	1.10201
156.22028	1.13368
154.29163	1.13368
152.36298	1.13368
150.43434	1.13368
148.50569	1.13368
