4497.60101	0.04187
4495.67236	0.04187
4493.74372	0.04187
4491.81507	0.04187
4489.88643	0.04187
4487.95778	0.03790
4486.02914	0.03479
4484.10049	0.03464
4482.17185	0.03856
4480.24320	0.04629
4478.31455	0.05460
4476.38591	0.06119
4474.45726	0.06391
4472.52862	0.06157
4470.59997	0.05493
4468.67133	0.04610
4466.74268	0.03724
4464.81404	0.03068
4462.88539	0.02900
4460.95675	0.03352
4459.02810	0.04305
4457.09946	0.05451
4455.17081	0.06400
4453.24216	0.06798
4451.31352	0.06501
4449.38487	0.05691
4447.45623	0.04786
4445.52758	0.04210
4443.59894	0.04216
4441.67029	0.04821
4439.74165	0.05787
4437.81300	0.06724
4435.88436	0.07279
4433.95571	0.07278
4432.02707	0.06763
4430.09842	0.05950
4428.16978	0.05136
4426.24113	0.04577
4424.31248	0.04385
4422.38384	0.04491
4420.45519	0.04688
4418.52655	0.04752
4416.59790	0.04557
4414.66926	0.04140
4412.74061	0.03672
4410.81197	0.03367
4408.88332	0.03346
4406.95468	0.03569
4405.02603	0.03908
4403.09739	0.04239
4401.16874	0.04491
4399.24009	0.04654
4397.31145	0.04752
4395.38280	0.04769
4393.45416	0.04627
4391.52551	0.04305
4389.59687	0.03930
4387.66822	0.03727
4385.73958	0.03884
4383.81093	0.04419
4381.88229	0.05115
4379.95364	0.05606
4378.02500	0.05621
4376.09635	0.05185
4374.16770	0.04570
4372.23906	0.04122
4370.31041	0.04103
4368.38177	0.04549
4366.45312	0.05240
4364.52448	0.05857
4362.59583	0.06200
4360.66719	0.06270
4358.73854	0.06203
4356.80990	0.06182
4354.88125	0.06362
4352.95261	0.06759
4351.02396	0.07222
4349.09531	0.07548
4347.16667	0.07596
4345.23802	0.07315
4343.30938	0.06765
4341.38073	0.06123
4339.45209	0.05611
4337.52344	0.05362
4335.59480	0.05392
4333.66615	0.05644
4331.73751	0.06006
4329.80886	0.06309
4327.88022	0.06415
4325.95157	0.06304
4324.02292	0.06039
4322.09428	0.05701
4320.16563	0.05380
4318.23699	0.05138
4316.30834	0.04982
4314.37970	0.04888
4312.45105	0.04840
4310.52241	0.04802
4308.59376	0.04716
4306.66512	0.04584
4304.73647	0.04474
4302.80783	0.04436
4300.87918	0.04495
4298.95054	0.04680
4297.02189	0.04981
4295.09324	0.05261
4293.16460	0.05345
4291.23595	0.05184
4289.30731	0.04887
4287.37866	0.04592
4285.45002	0.04380
4283.52137	0.04313
4281.59273	0.04434
4279.66408	0.04691
4277.73544	0.04936
4275.80679	0.05059
4273.87815	0.05074
4271.94950	0.05031
4270.02085	0.04942
4268.09221	0.04826
4266.16356	0.04744
4264.23492	0.04728
4262.30627	0.04700
4260.37763	0.04569
4258.44898	0.04344
4256.52034	0.04119
4254.59169	0.03993
4252.66305	0.03990
4250.73440	0.04089
4248.80576	0.04249
4246.87711	0.04415
4244.94846	0.04557
4243.01982	0.04714
4241.09117	0.04969
4239.16253	0.05351
4237.23388	0.05745
4235.30524	0.05960
4233.37659	0.05862
4231.44795	0.05469
4229.51930	0.04929
4227.59066	0.04439
4225.66201	0.04155
4223.73337	0.04149
4221.80472	0.04390
4219.87607	0.04781
4217.94743	0.05221
4216.01878	0.05625
4214.09014	0.05898
4212.16149	0.05919
4210.23285	0.05571
4208.30420	0.04815
4206.37556	0.03750
4204.44691	0.02626
4202.51827	0.01734
4200.58962	0.01235
4198.66098	0.01133
4196.73233	0.01375
4194.80368	0.01916
4192.87504	0.02677
4190.94639	0.03539
4189.01775	0.04423
4187.08910	0.05274
4185.16046	0.05985
4183.23181	0.06440
4181.30317	0.06617
4179.37452	0.06613
4177.44588	0.06539
4175.51723	0.06449
4173.58859	0.06384
4171.65994	0.06400
4169.73130	0.06515
4167.80265	0.06651
4165.87400	0.06667
4163.94536	0.06464
4162.01671	0.06056
4160.08807	0.05562
4158.15942	0.05130
4156.23078	0.04891
4154.30213	0.04918
4152.37349	0.05187
4150.44484	0.05559
4148.51620	0.05845
4146.58755	0.05927
4144.65891	0.05784
4142.73026	0.05406
4140.80161	0.04804
4138.87297	0.04099
4136.94432	0.03522
4135.01568	0.03272
4133.08703	0.03414
4131.15839	0.03885
4129.22974	0.04534
4127.30110	0.05149
4125.37245	0.05524
4123.44381	0.05569
4121.51516	0.05359
4119.58652	0.05054
4117.65787	0.04775
4115.72922	0.04559
4113.80058	0.04407
4111.87193	0.04322
4109.94329	0.04275
4108.01464	0.04181
4106.08600	0.03981
4104.15735	0.03710
4102.22871	0.03454
4100.30006	0.03276
4098.37142	0.03216
4096.44277	0.03307
4094.51413	0.03526
4092.58548	0.03747
4090.65683	0.03809
4088.72819	0.03652
4086.79954	0.03347
4084.87090	0.03030
4082.94225	0.02834
4081.01361	0.02834
4079.08496	0.03034
4077.15632	0.03365
4075.22767	0.03708
4073.29903	0.03972
4071.37038	0.04150
4069.44174	0.04315
4067.51309	0.04521
4065.58444	0.04723
4063.65580	0.04830
4061.72715	0.04801
4059.79851	0.04683
4057.86986	0.04558
4055.94122	0.04494
4054.01257	0.04535
4052.08393	0.04667
4050.15528	0.04789
4048.22664	0.04801
4046.29799	0.04747
4044.36935	0.04803
4042.44070	0.05097
4040.51206	0.05584
4038.58341	0.06105
4036.65476	0.06452
4034.72612	0.06415
4032.79747	0.05901
4030.86883	0.05064
4028.94018	0.04224
4027.01154	0.03651
4025.08289	0.03465
4023.15425	0.03640
4021.22560	0.04011
4019.29696	0.04323
4017.36831	0.04395
4015.43967	0.04223
4013.51102	0.03922
4011.58237	0.03650
4009.65373	0.03565
4007.72508	0.03757
4005.79644	0.04147
4003.86779	0.04554
4001.93915	0.04837
4000.01050	0.04948
3998.08186	0.04898
3996.15321	0.04760
3994.22457	0.04636
3992.29592	0.04583
3990.36728	0.04574
3988.43863	0.04544
3986.50998	0.04457
3984.58134	0.04315
3982.65269	0.04137
3980.72405	0.03951
3978.79540	0.03791
3976.86676	0.03684
3974.93811	0.03657
3973.00947	0.03733
3971.08082	0.03921
3969.15218	0.04203
3967.22353	0.04532
3965.29489	0.04848
3963.36624	0.05099
3961.43759	0.05258
3959.50895	0.05319
3957.58030	0.05288
3955.65166	0.05182
3953.72301	0.05033
3951.79437	0.04885
3949.86572	0.04790
3947.93708	0.04798
3946.00843	0.04930
3944.07979	0.05159
3942.15114	0.05407
3940.22250	0.05586
3938.29385	0.05636
3936.36521	0.05548
3934.43656	0.05370
3932.50791	0.05194
3930.57927	0.05111
3928.65062	0.05154
3926.72198	0.05292
3924.79333	0.05452
3922.86469	0.05556
3920.93604	0.05554
3919.00740	0.05447
3917.07875	0.05283
3915.15011	0.05120
3913.22146	0.04985
3911.29282	0.04877
3909.36417	0.04779
3907.43552	0.04675
3905.50688	0.04566
3903.57823	0.04464
3901.64959	0.04386
3899.72094	0.04328
3897.79230	0.04263
3895.86365	0.04159
3893.93501	0.03996
3892.00636	0.03771
3890.07772	0.03509
3888.14907	0.03258
3886.22043	0.03074
3884.29178	0.02998
3882.36313	0.03034
3880.43449	0.03161
3878.50584	0.03348
3876.57720	0.03578
3874.64855	0.03855
3872.71991	0.04200
3870.79126	0.04618
3868.86262	0.05073
3866.93397	0.05487
3865.00533	0.05776
3863.07668	0.05906
3861.14804	0.05905
3859.21939	0.05836
3857.29074	0.05756
3855.36210	0.05682
3853.43345	0.05594
3851.50481	0.05466
3849.57616	0.05310
3847.64752	0.05186
3845.71887	0.05165
3843.79023	0.05295
3841.86158	0.05562
3839.93294	0.05898
3838.00429	0.06196
3836.07565	0.06359
3834.14700	0.06336
3832.21835	0.06134
3830.28971	0.05808
3828.36106	0.05429
3826.43242	0.05058
3824.50377	0.04720
3822.57513	0.04400
3820.64648	0.04063
3818.71784	0.03701
3816.78919	0.03374
3814.86055	0.03192
3812.93190	0.03267
3811.00326	0.03649
3809.07461	0.04289
3807.14597	0.05035
3805.21732	0.05685
3803.28867	0.06079
3801.36003	0.06177
3799.43138	0.06060
3797.50274	0.05873
3795.57409	0.05756
3793.64545	0.05771
3791.71680	0.05886
3789.78816	0.05998
3787.85951	0.06019
3785.93087	0.05924
3784.00222	0.05747
3782.07358	0.05538
3780.14493	0.05314
3778.21628	0.05050
3776.28764	0.04699
3774.35899	0.04245
3772.43035	0.03735
3770.50170	0.03275
3768.57306	0.02979
3766.64441	0.02900
3764.71577	0.03014
3762.78712	0.03257
3760.85848	0.03576
3758.92983	0.03944
3757.00119	0.04354
3755.07254	0.04798
3753.14389	0.05239
3751.21525	0.05617
3749.28660	0.05887
3747.35796	0.06067
3745.42931	0.06225
3743.50067	0.06427
3741.57202	0.06683
3739.64338	0.06941
3737.71473	0.07108
3735.78609	0.07088
3733.85744	0.06838
3731.92880	0.06391
3730.00015	0.05829
3728.07150	0.05240
3726.14286	0.04700
3724.21421	0.04276
3722.28557	0.04022
3720.35692	0.03958
3718.42828	0.04076
3716.49963	0.04348
3714.57099	0.04720
3712.64234	0.05132
3710.71370	0.05538
3708.78505	0.05919
3706.85641	0.06260
3704.92776	0.06539
3702.99911	0.06740
3701.07047	0.06861
3699.14182	0.06925
3697.21318	0.06971
3695.28453	0.07052
3693.35589	0.07215
3691.42724	0.07487
3689.49860	0.07864
3687.56995	0.08312
3685.64131	0.08777
3683.71266	0.09203
3681.78402	0.09535
3679.85537	0.09740
3677.92673	0.09829
3675.99808	0.09863
3674.06943	0.09922
3672.14079	0.10071
3670.21214	0.10342
3668.28350	0.10736
3666.35485	0.11231
3664.42621	0.11798
3662.49756	0.12424
3660.56892	0.13121
3658.64027	0.13917
3656.71163	0.14825
3654.78298	0.15844
3652.85434	0.16963
3650.92569	0.18171
3648.99704	0.19460
3647.06840	0.20821
3645.13975	0.22219
3643.21111	0.23590
3641.28246	0.24847
3639.35382	0.25909
3637.42517	0.26729
3635.49653	0.27320
3633.56788	0.27745
3631.63924	0.28092
3629.71059	0.28442
3627.78195	0.28870
3625.85330	0.29463
3623.92465	0.30325
3621.99601	0.31543
3620.06736	0.33132
3618.13872	0.35003
3616.21007	0.36972
3614.28143	0.38826
3612.35278	0.40404
3610.42414	0.41661
3608.49549	0.42674
3606.56685	0.43590
3604.63820	0.44547
3602.70956	0.45622
3600.78091	0.46814
3598.85226	0.48072
3596.92362	0.49323
3594.99497	0.50498
3593.06633	0.51561
3591.13768	0.52520
3589.20904	0.53438
3587.28039	0.54416
3585.35175	0.55542
3583.42310	0.56848
3581.49446	0.58290
3579.56581	0.59759
3577.63717	0.61136
3575.70852	0.62344
3573.77988	0.63387
3571.85123	0.64340
3569.92258	0.65306
3567.99394	0.66370
3566.06529	0.67569
3564.13665	0.68910
3562.20800	0.70383
3560.27936	0.71966
3558.35071	0.73614
3556.42207	0.75256
3554.49342	0.76811
3552.56478	0.78209
3550.63613	0.79415
3548.70749	0.80450
3546.77884	0.81375
3544.85019	0.82248
3542.92155	0.83086
3540.99290	0.83869
3539.06426	0.84579
3537.13561	0.85234
3535.20697	0.85905
3533.27832	0.86690
3531.34968	0.87668
3529.42103	0.88849
3527.49239	0.90166
3525.56374	0.91519
3523.63510	0.92838
3521.70645	0.94114
3519.77780	0.95387
3517.84916	0.96691
3515.92051	0.98015
3513.99187	0.99303
3512.06322	1.00487
3510.13458	1.01533
3508.20593	1.02469
3506.27729	1.03367
3504.34864	1.04301
3502.42000	1.05289
3500.49135	1.06296
3498.56271	1.07265
3496.63406	1.08167
3494.70541	1.09025
3492.77677	1.09906
3490.84812	1.10878
3488.91948	1.11958
3486.99083	1.13089
3485.06219	1.14150
3483.13354	1.15011
3481.20490	1.15601
3479.27625	1.15953
3477.34761	1.16210
3475.41896	1.16567
3473.49032	1.17185
3471.56167	1.18129
3469.63302	1.19342
3467.70438	1.20681
3465.77573	1.21985
3463.84709	1.23150
3461.91844	1.24161
3459.98980	1.25071
3458.06115	1.25942
3456.13251	1.26798
3454.20386	1.27610
3452.27522	1.28329
3450.34657	1.28928
3448.41793	1.29439
3446.48928	1.29947
3444.56064	1.30546
3442.63199	1.31277
3440.70334	1.32105
3438.77470	1.32926
3436.84605	1.33625
3434.91741	1.34139
3432.98876	1.34487
3431.06012	1.34757
3429.13147	1.35047
3427.20283	1.35408
3425.27418	1.35822
3423.34554	1.36221
3421.41689	1.36537
3419.48825	1.36757
3417.55960	1.36928
3415.63095	1.37127
3413.70231	1.37415
3411.77366	1.37801
3409.84502	1.38244
3407.91637	1.38691
3405.98773	1.39106
3404.05908	1.39479
3402.13044	1.39823
3400.20179	1.40154
3398.27315	1.40490
3396.34450	1.40850
3394.41586	1.41268
3392.48721	1.41781
3390.55856	1.42388
3388.62992	1.43020
3386.70127	1.43546
3384.77263	1.43834
3382.84398	1.43811
3380.91534	1.43512
3378.98669	1.43065
3377.05805	1.42634
3375.12940	1.42342
3373.20076	1.42220
3371.27211	1.42217
3369.34347	1.42250
3367.41482	1.42260
3365.48617	1.42227
3363.55753	1.42170
3361.62888	1.42115
3359.70024	1.42065
3357.77159	1.41990
3355.84295	1.41840
3353.91430	1.41579
3351.98566	1.41218
3350.05701	1.40820
3348.12837	1.40478
3346.19972	1.40286
3344.27108	1.40297
3342.34243	1.40502
3340.41378	1.40839
3338.48514	1.41218
3336.55649	1.41558
3334.62785	1.41804
3332.69920	1.41926
3330.77056	1.41918
3328.84191	1.41795
3326.91327	1.41594
3324.98462	1.41372
3323.05598	1.41194
3321.12733	1.41118
3319.19869	1.41176
3317.27004	1.41352
3315.34140	1.41572
3313.41275	1.41741
3311.48410	1.41792
3309.55546	1.41728
3307.62681	1.41625
3305.69817	1.41591
3303.76952	1.41708
3301.84088	1.41966
3299.91223	1.42263
3297.98359	1.42449
3296.05494	1.42419
3294.12630	1.42174
3292.19765	1.41816
3290.26901	1.41486
3288.34036	1.41290
3286.41171	1.41248
3284.48307	1.41296
3282.55442	1.41330
3280.62578	1.41253
3278.69713	1.41015
3276.76849	1.40621
3274.83984	1.40114
3272.91120	1.39553
3270.98255	1.38985
3269.05391	1.38433
3267.12526	1.37892
3265.19662	1.37329
3263.26797	1.36707
3261.33932	1.36012
3259.41068	1.35271
3257.48203	1.34550
3255.55339	1.33928
3253.62474	1.33463
3251.69610	1.33152
3249.76745	1.32925
3247.83881	1.32675
3245.91016	1.32316
3243.98152	1.31821
3242.05287	1.31241
3240.12423	1.30671
3238.19558	1.30191
3236.26693	1.29811
3234.33829	1.29467
3232.40964	1.29057
3230.48100	1.28489
3228.55235	1.27737
3226.62371	1.26858
3224.69506	1.25964
3222.76642	1.25168
3220.83777	1.24543
3218.90913	1.24108
3216.98048	1.23828
3215.05184	1.23638
3213.12319	1.23467
3211.19455	1.23266
3209.26590	1.23005
3207.33725	1.22662
3205.40861	1.22229
3203.47996	1.21712
3201.55132	1.21127
3199.62267	1.20492
3197.69403	1.19822
3195.76538	1.19122
3193.83674	1.18397
3191.90809	1.17653
3189.97945	1.16895
3188.05080	1.16137
3186.12216	1.15397
3184.19351	1.14685
3182.26486	1.13996
3180.33622	1.13309
3178.40757	1.12604
3176.47893	1.11865
3174.55028	1.11081
3172.62164	1.10250
3170.69299	1.09391
3168.76435	1.08545
3166.83570	1.07763
3164.90706	1.07092
3162.97841	1.06569
3161.04977	1.06197
3159.12112	1.05944
3157.19247	1.05739
3155.26383	1.05509
3153.33518	1.05195
3151.40654	1.04778
3149.47789	1.04268
3147.54925	1.03701
3145.62060	1.03115
3143.69196	1.02540
3141.76331	1.01989
3139.83467	1.01465
3137.90602	1.00971
3135.97738	1.00502
3134.04873	1.00052
3132.12008	0.99616
3130.19144	0.99192
3128.26279	0.98789
3126.33415	0.98430
3124.40550	0.98140
3122.47686	0.97920
3120.54821	0.97728
3118.61957	0.97489
3116.69092	0.97125
3114.76228	0.96593
3112.83363	0.95922
3110.90499	0.95214
3108.97634	0.94614
3107.04769	0.94234
3105.11905	0.94094
3103.19040	0.94115
3101.26176	0.94156
3099.33311	0.94069
3097.40447	0.93762
3095.47582	0.93223
3093.54718	0.92522
3091.61853	0.91773
3089.68989	0.91087
3087.76124	0.90545
3085.83260	0.90183
3083.90395	0.89989
3081.97531	0.89897
3080.04666	0.89808
3078.11801	0.89623
3076.18937	0.89292
3074.26072	0.88823
3072.33208	0.88272
3070.40343	0.87716
3068.47479	0.87211
3066.54614	0.86764
3064.61750	0.86325
3062.68885	0.85826
3060.76021	0.85227
3058.83156	0.84545
3056.90292	0.83848
3054.97427	0.83228
3053.04562	0.82757
3051.11698	0.82452
3049.18833	0.82261
3047.25969	0.82092
3045.33104	0.81852
3043.40240	0.81488
3041.47375	0.80996
3039.54511	0.80418
3037.61646	0.79810
3035.68782	0.79217
3033.75917	0.78664
3031.83053	0.78156
3029.90188	0.77686
3027.97323	0.77249
3026.04459	0.76857
3024.11594	0.76534
3022.18730	0.76304
3020.25865	0.76174
3018.33001	0.76123
3016.40136	0.76107
3014.47272	0.76064
3012.54407	0.75949
3010.61543	0.75753
3008.68678	0.75498
3006.75814	0.75217
3004.82949	0.74944
3002.90084	0.74721
3000.97220	0.74578
2999.04355	0.74527
2997.11491	0.74569
2995.18626	0.74695
2993.25762	0.74866
2991.32897	0.75031
2989.40033	0.75163
2987.47168	0.75272
2985.54304	0.75377
2983.61439	0.75485
2981.68575	0.75604
2979.75710	0.75750
2977.82845	0.75935
2975.89981	0.76178
2973.97116	0.76515
2972.04252	0.76988
2970.11387	0.77626
2968.18523	0.78423
2966.25658	0.79325
2964.32794	0.80237
2962.39929	0.81024
2960.47065	0.81534
2958.54200	0.81650
2956.61336	0.81353
2954.68471	0.80764
2952.75607	0.80088
2950.82742	0.79539
2948.89877	0.79267
2946.97013	0.79316
2945.04148	0.79624
2943.11284	0.80080
2941.18419	0.80609
2939.25555	0.81207
2937.32690	0.81926
2935.39826	0.82825
2933.46961	0.83912
2931.54097	0.85104
2929.61232	0.86236
2927.68368	0.87113
2925.75503	0.87556
2923.82638	0.87428
2921.89774	0.86675
2919.96909	0.85352
2918.04045	0.83598
2916.11180	0.81594
2914.18316	0.79526
2912.25451	0.77558
2910.32587	0.75797
2908.39722	0.74278
2906.46858	0.73004
2904.53993	0.71973
2902.61129	0.71181
2900.68264	0.70588
2898.75399	0.70117
2896.82535	0.69680
2894.89670	0.69201
2892.96806	0.68627
2891.03941	0.67953
2889.11077	0.67225
2887.18212	0.66519
2885.25348	0.65893
2883.32483	0.65361
2881.39619	0.64935
2879.46754	0.64636
2877.53890	0.64467
2875.61025	0.64385
2873.68160	0.64336
2871.75296	0.64279
2869.82431	0.64183
2867.89567	0.64041
2865.96702	0.63910
2864.03838	0.63884
2862.10973	0.64025
2860.18109	0.64325
2858.25244	0.64714
2856.32380	0.65063
2854.39515	0.65211
2852.46651	0.65030
2850.53786	0.64469
2848.60922	0.63541
2846.68057	0.62319
2844.75192	0.60934
2842.82328	0.59537
2840.89463	0.58244
2838.96599	0.57127
2837.03734	0.56212
2835.10870	0.55466
2833.18005	0.54815
2831.25141	0.54196
2829.32276	0.53596
2827.39412	0.53036
2825.46547	0.52545
2823.53683	0.52147
2821.60818	0.51826
2819.67953	0.51526
2817.75089	0.51193
2815.82224	0.50804
2813.89360	0.50377
2811.96495	0.49955
2810.03631	0.49580
2808.10766	0.49271
2806.17902	0.49021
2804.25037	0.48803
2802.32173	0.48585
2800.39308	0.48341
2798.46444	0.48050
2796.53579	0.47705
2794.60714	0.47307
2792.67850	0.46887
2790.74985	0.46500
2788.82121	0.46201
2786.89256	0.46017
2784.96392	0.45932
2783.03527	0.45894
2781.10663	0.45822
2779.17798	0.45640
2777.24934	0.45319
2775.32069	0.44893
2773.39205	0.44427
2771.46340	0.43993
2769.53475	0.43649
2767.60611	0.43418
2765.67746	0.43271
2763.74882	0.43153
2761.82017	0.43019
2759.89153	0.42853
2757.96288	0.42661
2756.03424	0.42471
2754.10559	0.42314
2752.17695	0.42201
2750.24830	0.42105
2748.31966	0.41989
2746.39101	0.41838
2744.46236	0.41662
2742.53372	0.41462
2740.60507	0.41215
2738.67643	0.40902
2736.74778	0.40524
2734.81914	0.40097
2732.89049	0.39667
2730.96185	0.39328
2729.03320	0.39175
2727.10456	0.39219
2725.17591	0.39378
2723.24727	0.39549
2721.31862	0.39640
2719.38998	0.39580
2717.46133	0.39357
2715.53268	0.39033
2713.60404	0.38683
2711.67539	0.38338
2709.74675	0.37994
2707.81810	0.37646
2705.88946	0.37291
2703.96081	0.36940
2702.03217	0.36645
2700.10352	0.36470
2698.17488	0.36424
2696.24623	0.36442
2694.31759	0.36439
2692.38894	0.36345
2690.46029	0.36127
2688.53165	0.35794
2686.60300	0.35411
2684.67436	0.35045
2682.74571	0.34716
2680.81707	0.34398
2678.88842	0.34078
2676.95978	0.33790
2675.03113	0.33583
2673.10249	0.33496
2671.17384	0.33549
2669.24520	0.33714
2667.31655	0.33900
2665.38790	0.33993
2663.45926	0.33929
2661.53061	0.33710
2659.60197	0.33380
2657.67332	0.32999
2655.74468	0.32637
2653.81603	0.32343
2651.88739	0.32125
2649.95874	0.31981
2648.03010	0.31908
2646.10145	0.31899
2644.17281	0.31930
2642.24416	0.31974
2640.31551	0.31994
2638.38687	0.31928
2636.45822	0.31707
2634.52958	0.31312
2632.60093	0.30795
2630.67229	0.30268
2628.74364	0.29868
2626.81500	0.29700
2624.88635	0.29791
2622.95771	0.30051
2621.02906	0.30320
2619.10042	0.30458
2617.17177	0.30400
2615.24312	0.30161
2613.31448	0.29822
2611.38583	0.29513
2609.45719	0.29357
2607.52854	0.29415
2605.59990	0.29670
2603.67125	0.30042
2601.74261	0.30408
2599.81396	0.30639
2597.88532	0.30675
2595.95667	0.30546
2594.02803	0.30328
2592.09938	0.30095
2590.17074	0.29876
2588.24209	0.29619
2586.31344	0.29233
2584.38480	0.28682
2582.45615	0.27998
2580.52751	0.27247
2578.59886	0.26519
2576.67022	0.25929
2574.74157	0.25566
2572.81293	0.25448
2570.88428	0.25566
2568.95564	0.25916
2567.02699	0.26449
2565.09835	0.27048
2563.16970	0.27570
2561.24105	0.27914
2559.31241	0.28028
2557.38376	0.27896
2555.45512	0.27560
2553.52647	0.27118
2551.59783	0.26663
2549.66918	0.26243
2547.74054	0.25895
2545.81189	0.25681
2543.88325	0.25650
2541.95460	0.25804
2540.02596	0.26090
2538.09731	0.26435
2536.16866	0.26760
2534.24002	0.26994
2532.31137	0.27112
2530.38273	0.27136
2528.45408	0.27070
2526.52544	0.26878
2524.59679	0.26546
2522.66815	0.26141
2520.73950	0.25798
2518.81086	0.25648
2516.88221	0.25760
2514.95357	0.26105
2513.02492	0.26532
2511.09627	0.26838
2509.16763	0.26898
2507.23898	0.26721
2505.31034	0.26429
2503.38169	0.26185
2501.45305	0.26127
2499.52440	0.26296
2497.59576	0.26598
2495.66711	0.26846
2493.73847	0.26877
2491.80982	0.26648
2489.88118	0.26258
2487.95253	0.25882
2486.02389	0.25695
2484.09524	0.25783
2482.16659	0.26086
2480.23795	0.26425
2478.30930	0.26640
2476.38066	0.26703
2474.45201	0.26705
2472.52337	0.26746
2470.59472	0.26868
2468.66608	0.27043
2466.73743	0.27158
2464.80879	0.27051
2462.88014	0.26619
2460.95150	0.25935
2459.02285	0.25226
2457.09420	0.24733
2455.16556	0.24601
2453.23691	0.24842
2451.30827	0.25345
2449.37962	0.25925
2447.45098	0.26386
2445.52233	0.26580
2443.59369	0.26454
2441.66504	0.26053
2439.73640	0.25489
2437.80775	0.24930
2435.87911	0.24589
2433.95046	0.24677
2432.02181	0.25263
2430.09317	0.26167
2428.16452	0.27055
2426.23588	0.27639
2424.30723	0.27815
2422.37859	0.27653
2420.44994	0.27342
2418.52130	0.27094
2416.59265	0.27009
2414.66401	0.26991
2412.73536	0.26862
2410.80672	0.26547
2408.87807	0.26132
2406.94942	0.25782
2405.02078	0.25631
2403.09213	0.25719
2401.16349	0.25970
2399.23484	0.26226
2397.30620	0.26361
2395.37755	0.26355
2393.44891	0.26292
2391.52026	0.26286
2389.59162	0.26397
2387.66297	0.26598
2385.73433	0.26820
2383.80568	0.27021
2381.87703	0.27233
2379.94839	0.27560
2378.01974	0.28112
2376.09110	0.28901
2374.16245	0.29769
2372.23381	0.30432
2370.30516	0.30630
2368.37652	0.30264
2366.44787	0.29426
2364.51923	0.28368
2362.59058	0.27375
2360.66194	0.26619
2358.73329	0.26105
2356.80465	0.25745
2354.87600	0.25491
2352.94735	0.25379
2351.01871	0.25473
2349.09006	0.25787
2347.16142	0.26246
2345.23277	0.26709
2343.30413	0.27061
2341.37548	0.27282
2339.44684	0.27460
2337.51819	0.27696
2335.58955	0.28012
2333.66090	0.28314
2331.73226	0.28465
2329.80361	0.28376
2327.87496	0.28053
2325.94632	0.27565
2324.01767	0.26989
2322.08903	0.26367
2320.16038	0.25727
2318.23174	0.25142
2316.30309	0.24752
2314.37445	0.24701
2312.44580	0.25043
2310.51716	0.25676
2308.58851	0.26363
2306.65987	0.26830
2304.73122	0.26905
2302.80257	0.26592
2300.87393	0.26040
2298.94528	0.25438
2297.01664	0.24901
2295.08799	0.24418
2293.15935	0.23859
2291.23070	0.23073
2289.30206	0.22009
2287.37341	0.20781
2285.44477	0.19649
2283.51612	0.18919
2281.58748	0.18820
2279.65883	0.19385
2277.73018	0.20414
2275.80154	0.21553
2273.87289	0.22444
2271.94425	0.22877
2270.01560	0.22847
2268.08696	0.22538
2266.15831	0.22197
2264.22967	0.21988
2262.30102	0.21878
2260.37238	0.21651
2258.44373	0.21040
2256.51509	0.19904
2254.58644	0.18372
2252.65779	0.16855
2250.72915	0.15882
2248.80050	0.15812
2246.87186	0.16620
2244.94321	0.17946
2243.01457	0.19361
2241.08592	0.20530
2239.15728	0.21222
2237.22863	0.21303
2235.29999	0.20694
2233.37134	0.19313
2231.44270	0.17179
2229.51405	0.14683
2227.58541	0.12648
2225.65676	0.11912
2223.72811	0.12776
2221.79947	0.14812
2219.87082	0.17114
2217.94218	0.18778
2216.01353	0.19338
2214.08489	0.18941
2212.15624	0.18120
2210.22760	0.17368
2208.29895	0.16855
2206.37031	0.16393
2204.44166	0.15695
2202.51302	0.14707
2200.58437	0.13705
2198.65572	0.13121
2196.72708	0.13228
2194.79843	0.13950
2192.86979	0.14984
2190.94114	0.15981
2189.01250	0.16673
2187.08385	0.16913
2185.15521	0.16711
2183.22656	0.16244
2181.29792	0.15637
2179.36927	0.14792
2177.44063	0.13633
2175.51198	0.12389
2173.58333	0.11568
2171.65469	0.11633
2169.72604	0.12674
2167.79740	0.14255
2165.86875	0.15492
2163.94011	0.15473
2162.01146	0.13787
2160.08282	0.10679
2158.15417	0.07010
2156.22553	0.03957
2154.29688	0.02318
2152.36824	0.02069
2150.43959	0.02643
2148.51094	0.03492
2146.58230	0.04251
2144.65365	0.04689
2142.72501	0.04904
2140.79636	0.05435
2138.86772	0.06877
2136.93907	0.09447
2135.01043	0.12972
2133.08178	0.16977
2131.15314	0.20689
2129.22449	0.23233
2127.29585	0.24065
2125.36720	0.23292
2123.43856	0.21541
2121.50991	0.19533
2119.58126	0.17825
2117.65262	0.16744
2115.72397	0.16306
2113.79533	0.16269
2111.86668	0.16350
2109.93804	0.16393
2108.00939	0.16292
2106.08075	0.15896
2104.15210	0.15100
2102.22346	0.13965
2100.29481	0.12667
2098.36617	0.11446
2096.43752	0.10604
2094.50887	0.10401
2092.58023	0.10898
2090.65158	0.11900
2088.72294	0.13068
2086.79429	0.14036
2084.86565	0.14520
2082.93700	0.14408
2081.00836	0.13795
2079.07971	0.12934
2077.15107	0.12152
2075.22242	0.11761
2073.29378	0.11997
2071.36513	0.12954
2069.43648	0.14534
2067.50784	0.16440
2065.57919	0.18258
2063.65055	0.19618
2061.72190	0.20315
2059.79326	0.20338
2057.86461	0.19808
2055.93597	0.18909
2054.00732	0.17797
2052.07868	0.16547
2050.15003	0.15188
2048.22139	0.13805
2046.29274	0.12553
2044.36409	0.11550
2042.43545	0.10838
2040.50680	0.10482
2038.57816	0.10631
2036.64951	0.11473
2034.72087	0.13087
2032.79222	0.15262
2030.86358	0.17341
2028.93493	0.18324
2027.00629	0.17302
2025.07764	0.14073
2023.14900	0.09404
2021.22035	0.04741
2019.29170	0.01626
2017.36306	0.00962
2015.43441	0.02560
2013.50577	0.05310
2011.57712	0.07874
2009.64848	0.09383
2007.71983	0.09741
2005.79119	0.09524
2003.86254	0.09567
2001.93390	0.10426
2000.00525	0.12067
1998.07661	0.13974
1996.14796	0.15503
1994.21932	0.16134
1992.29067	0.15549
1990.36202	0.13676
1988.43338	0.10745
1986.50473	0.07281
1984.57609	0.04029
1982.64744	0.01818
1980.71880	0.01355
1978.79015	0.02933
1976.86151	0.06218
1974.93286	0.10299
1973.00422	0.14024
1971.07557	0.16418
1969.14693	0.17001
1967.21828	0.15911
1965.28963	0.13819
1963.36099	0.11643
1961.43234	0.10163
1959.50370	0.09724
1957.57505	0.10178
1955.64641	0.11063
1953.71776	0.11886
1951.78912	0.12373
1949.86047	0.12548
1947.93183	0.12638
1946.00318	0.12860
1944.07454	0.13267
1942.14589	0.13740
1940.21724	0.14131
1938.28860	0.14404
1936.35995	0.14645
1934.43131	0.14969
1932.50266	0.15417
1930.57402	0.15928
1928.64537	0.16370
1926.71673	0.16624
1924.78808	0.16661
1922.85944	0.16564
1920.93079	0.16437
1919.00215	0.16288
1917.07350	0.16043
1915.14485	0.15656
1913.21621	0.15186
1911.28756	0.14780
1909.35892	0.14608
1907.43027	0.14773
1905.50163	0.15225
1903.57298	0.15759
1901.64434	0.16131
1899.71569	0.16216
1897.78705	0.16060
1895.85840	0.15818
1893.92976	0.15643
1892.00111	0.15600
1890.07246	0.15647
1888.14382	0.15687
1886.21517	0.15635
1884.28653	0.15461
1882.35788	0.15200
1880.42924	0.14938
1878.50059	0.14780
1876.57195	0.14822
1874.64330	0.15117
1872.71466	0.15650
1870.78601	0.16324
1868.85737	0.16987
1866.92872	0.17492
1865.00008	0.17764
1863.07143	0.17807
1861.14278	0.17699
1859.21414	0.17539
1857.28549	0.17404
1855.35685	0.17311
1853.42820	0.17233
1851.49956	0.17129
1849.57091	0.16965
1847.64227	0.16720
1845.71362	0.16408
1843.78498	0.16086
1841.85633	0.15839
1839.92769	0.15751
1837.99904	0.15877
1836.07039	0.16217
1834.14175	0.16701
1832.21310	0.17202
1830.28446	0.17593
1828.35581	0.17797
1826.42717	0.17812
1824.49852	0.17709
1822.56988	0.17589
1820.64123	0.17541
1818.71259	0.17591
1816.78394	0.17699
1814.85530	0.17798
1812.92665	0.17833
1810.99800	0.17791
1809.06936	0.17704
1807.14071	0.17625
1805.21207	0.17597
1803.28342	0.17623
1801.35478	0.17680
1799.42613	0.17744
1797.49749	0.17809
1795.56884	0.17899
1793.64020	0.18057
1791.71155	0.18314
1789.78291	0.18662
1787.85426	0.19051
1785.92561	0.19408
1783.99697	0.19671
1782.06832	0.19813
1780.13968	0.19859
1778.21103	0.19874
1776.28239	0.19935
1774.35374	0.20103
1772.42510	0.20407
1770.49645	0.20845
1768.56781	0.21399
1766.63916	0.22040
1764.71052	0.22739
1762.78187	0.23473
1760.85322	0.24227
1758.92458	0.24995
1756.99593	0.25779
1755.06729	0.26595
1753.13864	0.27469
1751.21000	0.28425
1749.28135	0.29476
1747.35271	0.30632
1745.42406	0.31890
1743.49542	0.33235
1741.56677	0.34630
1739.63813	0.36022
1737.70948	0.37363
1735.78084	0.38620
1733.85219	0.39792
1731.92354	0.40903
1729.99490	0.41993
1728.06625	0.43081
1726.13761	0.44155
1724.20896	0.45187
1722.28032	0.46161
1720.35167	0.47080
1718.42303	0.47961
1716.49438	0.48813
1714.56574	0.49619
1712.63709	0.50344
1710.70845	0.50972
1708.77980	0.51537
1706.85115	0.52142
1704.92251	0.52918
1702.99386	0.53973
1701.06522	0.55343
1699.13657	0.56985
1697.20793	0.58801
1695.27928	0.60688
1693.35064	0.62581
1691.42199	0.64459
1689.49335	0.66342
1687.56470	0.68264
1685.63606	0.70259
1683.70741	0.72349
1681.77876	0.74541
1679.85012	0.76826
1677.92147	0.79177
1675.99283	0.81558
1674.06418	0.83931
1672.13554	0.86274
1670.20689	0.88586
1668.27825	0.90887
1666.34960	0.93205
1664.42096	0.95557
1662.49231	0.97929
1660.56367	1.00270
1658.63502	1.02496
1656.70637	1.04512
1654.77773	1.06241
1652.84908	1.07649
1650.92044	1.08748
1648.99179	1.09593
1647.06315	1.10250
1645.13450	1.10779
1643.20586	1.11210
1641.27721	1.11533
1639.34857	1.11709
1637.41992	1.11680
1635.49128	1.11387
1633.56263	1.10784
1631.63399	1.09851
1629.70534	1.08606
1627.77669	1.07098
1625.84805	1.05401
1623.91940	1.03598
1621.99076	1.01775
1620.06211	1.00008
1618.13347	0.98360
1616.20482	0.96871
1614.27618	0.95558
1612.34753	0.94413
1610.41889	0.93404
1608.49024	0.92484
1606.56160	0.91608
1604.63295	0.90737
1602.70430	0.89833
1600.77566	0.88862
1598.84701	0.87784
1596.91837	0.86558
1594.98972	0.85160
1593.06108	0.83601
1591.13243	0.81930
1589.20379	0.80225
1587.27514	0.78566
1585.34650	0.77009
1583.41785	0.75576
1581.48921	0.74249
1579.56056	0.72990
1577.63191	0.71763
1575.70327	0.70560
1573.77462	0.69404
1571.84598	0.68342
1569.91733	0.67430
1567.98869	0.66711
1566.06004	0.66196
1564.13140	0.65849
1562.20275	0.65602
1560.27411	0.65370
1558.34546	0.65079
1556.41682	0.64686
1554.48817	0.64178
1552.55952	0.63563
1550.63088	0.62860
1548.70223	0.62083
1546.77359	0.61238
1544.84494	0.60337
1542.91630	0.59397
1540.98765	0.58444
1539.05901	0.57509
1537.13036	0.56617
1535.20172	0.55791
1533.27307	0.55054
1531.34443	0.54435
1529.41578	0.53967
1527.48713	0.53675
1525.55849	0.53554
1523.62984	0.53554
1521.70120	0.53573
1519.77255	0.53481
1517.84391	0.53154
1515.91526	0.52511
1513.98662	0.51540
1512.05797	0.50291
1510.12933	0.48856
1508.20068	0.47334
1506.27204	0.45810
1504.34339	0.44345
1502.41475	0.42973
1500.48610	0.41710
1498.55745	0.40557
1496.62881	0.39518
1494.70016	0.38599
1492.77152	0.37824
1490.84287	0.37226
1488.91423	0.36843
1486.98558	0.36702
1485.05694	0.36817
1483.12829	0.37200
1481.19965	0.37877
1479.27100	0.38881
1477.34236	0.40239
1475.41371	0.41941
1473.48506	0.43910
1471.55642	0.46009
1469.62777	0.48072
1467.69913	0.49947
1465.77048	0.51536
1463.84184	0.52808
1461.91319	0.53779
1459.98455	0.54491
1458.05590	0.54984
1456.12726	0.55281
1454.19861	0.55390
1452.26997	0.55319
1450.34132	0.55091
1448.41267	0.54761
1446.48403	0.54415
1444.55538	0.54157
1442.62674	0.54083
1440.69809	0.54254
1438.76945	0.54690
1436.84080	0.55382
1434.91216	0.56307
1432.98351	0.57444
1431.05487	0.58771
1429.12622	0.60255
1427.19758	0.61850
1425.26893	0.63499
1423.34028	0.65151
1421.41164	0.66777
1419.48299	0.68362
1417.55435	0.69895
1415.62570	0.71339
1413.69706	0.72632
1411.76841	0.73700
1409.83977	0.74483
1407.91112	0.74962
1405.98248	0.75163
1404.05383	0.75140
1402.12519	0.74943
1400.19654	0.74593
1398.26789	0.74090
1396.33925	0.73426
1394.41060	0.72614
1392.48196	0.71703
1390.55331	0.70768
1388.62467	0.69882
1386.69602	0.69090
1384.76738	0.68391
1382.83873	0.67749
1380.91009	0.67110
1378.98144	0.66423
1377.05280	0.65650
1375.12415	0.64771
1373.19551	0.63785
1371.26686	0.62699
1369.33821	0.61528
1367.40957	0.60300
1365.48092	0.59052
1363.55228	0.57828
1361.62363	0.56670
1359.69499	0.55606
1357.76634	0.54648
1355.83770	0.53784
1353.90905	0.52984
1351.98041	0.52211
1350.05176	0.51450
1348.12312	0.50723
1346.19447	0.50084
1344.26582	0.49592
1342.33718	0.49285
1340.40853	0.49155
1338.47989	0.49146
1336.55124	0.49179
1334.62260	0.49179
1332.69395	0.49106
1330.76531	0.48954
1328.83666	0.48732
1326.90802	0.48452
1324.97937	0.48123
1323.05073	0.47762
1321.12208	0.47402
1319.19343	0.47096
1317.26479	0.46896
1315.33614	0.46830
1313.40750	0.46882
1311.47885	0.46987
1309.55021	0.47061
1307.62156	0.47038
1305.69292	0.46904
1303.76427	0.46699
1301.83563	0.46505
1299.90698	0.46409
1297.97834	0.46471
1296.04969	0.46712
1294.12104	0.47110
1292.19240	0.47620
1290.26375	0.48192
1288.33511	0.48788
1286.40646	0.49390
1284.47782	0.49994
1282.54917	0.50603
1280.62053	0.51226
1278.69188	0.51871
1276.76324	0.52540
1274.83459	0.53231
1272.90595	0.53936
1270.97730	0.54641
1269.04866	0.55330
1267.12001	0.55986
1265.19136	0.56595
1263.26272	0.57148
1261.33407	0.57640
1259.40543	0.58064
1257.47678	0.58405
1255.54814	0.58646
1253.61949	0.58790
1251.69085	0.58865
1249.76220	0.58922
1247.83356	0.59012
1245.90491	0.59170
1243.97627	0.59392
1242.04762	0.59641
1240.11897	0.59879
1238.19033	0.60101
1236.26168	0.60349
1234.33304	0.60696
1232.40439	0.61198
1230.47575	0.61868
1228.54710	0.62659
1226.61846	0.63489
1224.68981	0.64276
1222.76117	0.64982
1220.83252	0.65624
1218.90388	0.66264
1216.97523	0.66976
1215.04658	0.67816
1213.11794	0.68804
1211.18929	0.69924
1209.26065	0.71141
1207.33200	0.72421
1205.40336	0.73744
1203.47471	0.75120
1201.54607	0.76583
1199.61742	0.78171
1197.68878	0.79919
1195.76013	0.81859
1193.83149	0.84013
1191.90284	0.86366
1189.97419	0.88881
1188.04555	0.91524
1186.11690	0.94268
1184.18826	0.97084
1182.25961	0.99972
1180.33097	1.02977
1178.40232	1.06143
1176.47368	1.09471
1174.54503	1.12946
1172.61639	1.16552
1170.68774	1.20263
1168.75910	1.24038
1166.83045	1.27851
1164.90180	1.31691
1162.97316	1.35508
1161.04451	1.39224
1159.11587	1.42777
1157.18722	1.46141
1155.25858	1.49320
1153.32993	1.52337
1151.40129	1.55233
1149.47264	1.58065
1147.54400	1.60891
1145.61535	1.63767
1143.68671	1.66746
1141.75806	1.69881
1139.82942	1.73231
1137.90077	1.76836
1135.97212	1.80669
1134.04348	1.84622
1132.11483	1.88511
1130.18619	1.92097
1128.25754	1.95125
1126.32890	1.97400
1124.40025	1.98881
1122.47161	1.99685
1120.54296	2.00000
1118.61432	1.99994
1116.68567	1.99785
1114.75703	1.99439
1112.82838	1.98966
1110.89973	1.98297
1108.97109	1.97339
1107.04244	1.96045
1105.11380	1.94440
1103.18515	1.92594
1101.25651	1.90616
1099.32786	1.88640
1097.39922	1.86781
1095.47057	1.85044
1093.54193	1.83327
1091.61328	1.81521
1089.68464	1.79585
1087.75599	1.77521
1085.82734	1.75328
1083.89870	1.72999
1081.97005	1.70521
1080.04141	1.67852
1078.11276	1.64949
1076.18412	1.61832
1074.25547	1.58594
1072.32683	1.55335
1070.39818	1.52119
1068.46954	1.48998
1066.54089	1.46035
1064.61225	1.43290
1062.68360	1.40806
1060.75495	1.38605
1058.82631	1.36649
1056.89766	1.34795
1054.96902	1.32839
1053.04037	1.30642
1051.11173	1.28221
1049.18308	1.25715
1047.25444	1.23298
1045.32579	1.21124
1043.39715	1.19280
1041.46850	1.17753
1039.53986	1.16422
1037.61121	1.15128
1035.68256	1.13744
1033.75392	1.12188
1031.82527	1.10396
1029.89663	1.08344
1027.96798	1.06110
1026.03934	1.03841
1024.11069	1.01647
1022.18205	0.99526
1020.25340	0.97413
1018.32476	0.95229
1016.39611	0.92920
1014.46747	0.90509
1012.53882	0.88133
1010.61018	0.85984
1008.68153	0.84194
1006.75288	0.82782
1004.82424	0.81674
1002.89559	0.80735
1000.96695	0.79809
999.03830	0.78796
997.10966	0.77691
995.18101	0.76527
993.25237	0.75326
991.32372	0.74111
989.39508	0.72907
987.46643	0.71701
985.53779	0.70431
983.60914	0.69036
981.68049	0.67487
979.75185	0.65760
977.82320	0.63841
975.89456	0.61790
973.96591	0.59757
972.03727	0.57914
970.10862	0.56377
968.17998	0.55177
966.25133	0.54268
964.32269	0.53562
962.39404	0.52980
960.46540	0.52495
958.53675	0.52119
956.60810	0.51862
954.67946	0.51733
952.75081	0.51734
950.82217	0.51828
948.89352	0.51959
946.96488	0.52085
945.03623	0.52166
943.10759	0.52082
941.17894	0.51667
939.25030	0.50837
937.32165	0.49662
935.39301	0.48302
933.46436	0.46971
931.53571	0.45931
929.60707	0.45383
927.67842	0.45325
925.74978	0.45561
923.82113	0.45831
921.89249	0.45909
919.96384	0.45638
918.03520	0.44984
916.10655	0.44062
914.17791	0.43027
912.24926	0.41975
910.32062	0.40938
908.39197	0.39915
906.46333	0.38879
904.53468	0.37811
902.60603	0.36767
900.67739	0.35888
898.74874	0.35310
896.82010	0.35114
894.89145	0.35322
892.96281	0.35880
891.03416	0.36596
889.10552	0.37179
887.17687	0.37389
885.24823	0.37154
883.31958	0.36557
881.39094	0.35768
879.46229	0.35010
877.53364	0.34505
875.60500	0.34353
873.67635	0.34471
871.74771	0.34700
869.81906	0.34891
867.89042	0.34896
865.96177	0.34571
864.03313	0.33866
862.10448	0.32896
860.17584	0.31855
858.24719	0.30913
856.31855	0.30206
854.38990	0.29802
852.46125	0.29631
850.53261	0.29535
848.60396	0.29400
846.67532	0.29220
844.74667	0.29017
842.81803	0.28782
840.88938	0.28488
838.96074	0.28115
837.03209	0.27661
835.10345	0.27171
833.17480	0.26770
831.24616	0.26611
829.31751	0.26779
827.38886	0.27223
825.46022	0.27783
823.53157	0.28281
821.60293	0.28586
819.67428	0.28607
817.74564	0.28303
815.81699	0.27749
813.88835	0.27133
811.95970	0.26668
810.03106	0.26509
808.10241	0.26706
806.17377	0.27160
804.24512	0.27619
802.31647	0.27795
800.38783	0.27554
798.45918	0.26969
796.53054	0.26265
794.60189	0.25715
792.67325	0.25521
790.74460	0.25736
788.81596	0.26243
786.88731	0.26806
784.95867	0.27185
783.03002	0.27238
781.10138	0.26980
779.17273	0.26561
777.24409	0.26174
775.31544	0.25938
773.38679	0.25840
771.45815	0.25767
769.52950	0.25601
767.60086	0.25328
765.67221	0.25055
763.74357	0.24935
761.81492	0.25053
759.88628	0.25349
757.95763	0.25653
756.02899	0.25808
754.10034	0.25773
752.17170	0.25652
750.24305	0.25617
748.31440	0.25802
746.38576	0.26223
744.45711	0.26783
742.52847	0.27338
740.59982	0.27769
738.67118	0.28012
736.74253	0.28064
734.81389	0.27946
732.88524	0.27690
730.95660	0.27346
729.02795	0.27015
727.09931	0.26842
725.17066	0.26941
723.24201	0.27320
721.31337	0.27882
719.38472	0.28477
717.45608	0.28974
715.52743	0.29320
713.59879	0.29557
711.67014	0.29788
709.74150	0.30096
707.81285	0.30494
705.88421	0.30936
703.95556	0.31346
702.02692	0.31663
700.09827	0.31870
698.16962	0.31982
696.24098	0.32030
694.31233	0.32030
692.38369	0.31983
690.45504	0.31867
688.52640	0.31650
686.59775	0.31321
684.66911	0.30903
682.74046	0.30449
680.81182	0.30033
678.88317	0.29745
676.95453	0.29653
675.02588	0.29766
673.09723	0.30028
671.16859	0.30335
669.23994	0.30558
667.31130	0.30599
665.38265	0.30478
663.45401	0.30341
661.52536	0.30367
659.59672	0.30672
657.66807	0.31265
655.73943	0.32047
653.81078	0.32859
651.88214	0.33568
649.95349	0.34157
648.02485	0.34732
646.09620	0.35443
644.16755	0.36422
642.23891	0.37749
640.31026	0.39447
638.38162	0.41486
636.45297	0.43796
634.52433	0.46280
632.59568	0.48896
630.66704	0.51804
628.73839	0.55347
626.80975	0.59736
624.88110	0.64679
622.95246	0.69327
621.02381	0.72529
619.09516	0.73233
617.16652	0.70938
615.23787	0.66055
613.30923	0.59784
611.38058	0.53478
609.45194	0.48043
607.52329	0.43853
605.59465	0.40988
603.66600	0.39414
601.73736	0.38992
599.80871	0.39469
597.88007	0.40500
595.95142	0.41676
594.02277	0.42615
592.09413	0.43112
590.16548	0.43232
588.23684	0.43221
586.30819	0.43311
584.37955	0.43596
582.45090	0.44071
580.52226	0.44730
578.59361	0.45591
576.66497	0.46646
574.73632	0.47829
572.80768	0.49046
570.87903	0.50225
568.95038	0.51341
567.02174	0.52403
565.09309	0.53442
563.16445	0.54486
561.23580	0.55538
559.30716	0.56565
557.37851	0.57506
555.44987	0.58296
553.52122	0.58906
551.59258	0.59388
549.66393	0.59864
547.73529	0.60469
545.80664	0.61286
543.87800	0.62320
541.94935	0.63499
540.02070	0.64689
538.09206	0.65738
536.16341	0.66540
534.23477	0.67061
532.30612	0.67291
530.37748	0.67209
528.44883	0.66791
526.52019	0.66022
524.59154	0.64895
522.66290	0.63434
520.73425	0.61748
518.80561	0.60053
516.87696	0.58602
514.94831	0.57559
513.01967	0.56886
511.09102	0.56323
509.16238	0.55486
507.23373	0.54072
505.30509	0.52037
503.37644	0.49652
501.44780	0.47370
499.51915	0.45584
497.59051	0.44423
495.66186	0.43720
493.73322	0.43155
491.80457	0.42476
489.87592	0.41648
487.94728	0.40845
486.01863	0.40304
484.08999	0.40153
482.16134	0.40338
480.23270	0.40671
478.30405	0.40955
476.37541	0.41079
474.44676	0.41033
472.51812	0.40855
470.58947	0.40567
468.66083	0.40147
466.73218	0.39555
464.80353	0.38790
462.87489	0.37922
460.94624	0.37073
459.01760	0.36329
457.08895	0.35687
455.16031	0.35052
453.23166	0.34287
451.30302	0.33292
449.37437	0.32057
447.44573	0.30688
445.51708	0.29373
443.58844	0.28300
441.65979	0.27575
439.73114	0.27201
437.80250	0.27118
435.87385	0.27249
433.94521	0.27519
432.01656	0.27848
430.08792	0.28149
428.15927	0.28325
426.23063	0.28273
424.30198	0.27928
422.37334	0.27308
420.44469	0.26515
418.51605	0.25662
416.58740	0.24809
414.65876	0.23935
412.73011	0.22952
410.80146	0.21765
408.87282	0.20338
406.94417	0.18752
405.01553	0.17207
403.08688	0.15966
401.15824	0.15277
399.22959	0.15291
397.30095	0.15976
395.37230	0.17068
393.44366	0.18124
391.51501	0.18680
389.58637	0.18432
387.65772	0.17380
385.72907	0.15848
383.80043	0.14372
381.87178	0.13435
379.94314	0.13201
378.01449	0.13423
376.08585	0.13592
374.15720	0.13217
372.22856	0.12088
370.29991	0.10411
368.37127	0.08739
366.44262	0.07686
364.51398	0.07583
362.58533	0.08292
360.65668	0.09280
358.72804	0.09879
356.79939	0.09582
354.87075	0.08255
352.94210	0.06178
351.01346	0.03883
349.08481	0.01899
347.15617	0.00567
345.22752	0.00000
343.29888	0.00142
341.37023	0.00837
339.44159	0.01889
337.51294	0.03089
335.58429	0.04205
333.65565	0.05007
331.72700	0.05337
329.79836	0.05183
327.86971	0.04692
325.94107	0.04085
324.01242	0.03546
322.08378	0.03194
320.15513	0.03003
318.22649	0.02844
316.29784	0.02594
314.36920	0.02240
312.44055	0.01929
310.51190	0.01917
308.58326	0.02456
306.65461	0.03616
304.72597	0.05167
302.79732	0.06616
300.86868	0.07424
298.94003	0.07271
297.01139	0.06230
295.08274	0.04747
293.15410	0.03424
291.22545	0.02722
289.29681	0.02761
287.36816	0.03350
285.43952	0.04159
283.51087	0.04918
281.58222	0.05530
279.65358	0.06032
277.72493	0.06455
275.79629	0.06728
273.86764	0.06754
271.93900	0.06563
270.01035	0.06386
268.08171	0.06613
266.15306	0.07636
264.22442	0.09616
262.29577	0.12295
260.36713	0.15029
258.43848	0.17060
256.50983	0.17858
254.58119	0.17340
252.65254	0.15899
250.72390	0.14229
248.79525	0.13036
246.86661	0.12763
244.93796	0.13467
243.00932	0.14920
241.08067	0.16825
239.15203	0.18972
237.22338	0.21243
235.29474	0.23517
233.36609	0.25627
231.43744	0.27402
229.50880	0.28773
227.58015	0.29844
225.65151	0.30877
223.72286	0.32164
221.79422	0.33830
219.86557	0.35693
217.93693	0.37294
216.00828	0.38080
214.07964	0.37643
212.15099	0.35912
210.22235	0.33245
208.29370	0.30421
206.36505	0.28452
204.43641	0.28225
202.50776	0.30130
200.57912	0.33851
198.65047	0.38423
196.72183	0.42507
194.79318	0.44784
192.86454	0.44374
190.93589	0.41171
189.00725	0.35923
187.07860	0.30061
185.14996	0.25362
183.22131	0.23458
181.29267	0.25203
179.36402	0.30211
177.43537	0.36970
175.50673	0.43575
173.57808	0.48619
171.64944	0.51763
169.72079	0.53799
167.79215	0.56139
165.86350	0.59940
163.93486	0.65318
162.00621	0.70969
160.07757	0.75738
158.14892	0.78865
156.22028	0.80225
154.29163	0.80225
152.36298	0.80225
150.43434	0.80225
148.50569	0.80225
