4497.60101	0.16455
4495.67236	0.16455
4493.74372	0.16455
4491.81507	0.16455
4489.88643	0.16455
4487.95778	0.16376
4486.02914	0.16331
4484.10049	0.16345
4482.17185	0.16418
4480.24320	0.16520
4478.31455	0.16557
4476.38591	0.16476
4474.45726	0.16289
4472.52862	0.16081
4470.59997	0.15951
4468.67133	0.15954
4466.74268	0.16092
4464.81404	0.16317
4462.88539	0.16546
4460.95675	0.16699
4459.02810	0.16757
4457.09946	0.16772
4455.17081	0.16802
4453.24216	0.16864
4451.31352	0.16944
4449.38487	0.17018
4447.45623	0.17052
4445.52758	0.17015
4443.59894	0.16919
4441.67029	0.16812
4439.74165	0.16727
4437.81300	0.16658
4435.88436	0.16593
4433.95571	0.16537
4432.02707	0.16498
4430.09842	0.16479
4428.16978	0.16489
4426.24113	0.16533
4424.31248	0.16597
4422.38384	0.16642
4420.45519	0.16640
4418.52655	0.16589
4416.59790	0.16510
4414.66926	0.16425
4412.74061	0.16354
4410.81197	0.16330
4408.88332	0.16385
4406.95468	0.16517
4405.02603	0.16697
4403.09739	0.16887
4401.16874	0.17056
4399.24009	0.17167
4397.31145	0.17192
4395.38280	0.17138
4393.45416	0.17041
4391.52551	0.16935
4389.59687	0.16843
4387.66822	0.16790
4385.73958	0.16789
4383.81093	0.16825
4381.88229	0.16861
4379.95364	0.16850
4378.02500	0.16764
4376.09635	0.16609
4374.16770	0.16429
4372.23906	0.16294
4370.31041	0.16255
4368.38177	0.16306
4366.45312	0.16378
4364.52448	0.16374
4362.59583	0.16236
4360.66719	0.15984
4358.73854	0.15711
4356.80990	0.15531
4354.88125	0.15524
4352.95261	0.15692
4351.02396	0.15961
4349.09531	0.16221
4347.16667	0.16389
4345.23802	0.16451
4343.30938	0.16438
4341.38073	0.16388
4339.45209	0.16336
4337.52344	0.16315
4335.59480	0.16350
4333.66615	0.16443
4331.73751	0.16583
4329.80886	0.16742
4327.88022	0.16865
4325.95157	0.16879
4324.02292	0.16744
4322.09428	0.16486
4320.16563	0.16179
4318.23699	0.15906
4316.30834	0.15745
4314.37970	0.15741
4312.45105	0.15882
4310.52241	0.16115
4308.59376	0.16377
4306.66512	0.16620
4304.73647	0.16810
4302.80783	0.16922
4300.87918	0.16944
4298.95054	0.16867
4297.02189	0.16681
4295.09324	0.16401
4293.16460	0.16086
4291.23595	0.15823
4289.30731	0.15685
4287.37866	0.15712
4285.45002	0.15892
4283.52137	0.16151
4281.59273	0.16389
4279.66408	0.16537
4277.73544	0.16581
4275.80679	0.16542
4273.87815	0.16459
4271.94950	0.16373
4270.02085	0.16314
4268.09221	0.16273
4266.16356	0.16215
4264.23492	0.16111
4262.30627	0.15967
4260.37763	0.15821
4258.44898	0.15732
4256.52034	0.15764
4254.59169	0.15946
4252.66305	0.16233
4250.73440	0.16516
4248.80576	0.16683
4246.87711	0.16666
4244.94846	0.16475
4243.01982	0.16197
4241.09117	0.15972
4239.16253	0.15916
4237.23388	0.16061
4235.30524	0.16338
4233.37659	0.16623
4231.44795	0.16803
4229.51930	0.16815
4227.59066	0.16672
4225.66201	0.16459
4223.73337	0.16280
4221.80472	0.16190
4219.87607	0.16170
4217.94743	0.16174
4216.01878	0.16176
4214.09014	0.16178
4212.16149	0.16202
4210.23285	0.16287
4208.30420	0.16453
4206.37556	0.16660
4204.44691	0.16827
4202.51827	0.16887
4200.58962	0.16827
4198.66098	0.16673
4196.73233	0.16470
4194.80368	0.16272
4192.87504	0.16112
4190.94639	0.16001
4189.01775	0.15931
4187.08910	0.15905
4185.16046	0.15932
4183.23181	0.16008
4181.30317	0.16104
4179.37452	0.16183
4177.44588	0.16217
4175.51723	0.16201
4173.58859	0.16154
4171.65994	0.16110
4169.73130	0.16102
4167.80265	0.16144
4165.87400	0.16221
4163.94536	0.16296
4162.01671	0.16333
4160.08807	0.16324
4158.15942	0.16276
4156.23078	0.16208
4154.30213	0.16153
4152.37349	0.16145
4150.44484	0.16197
4148.51620	0.16290
4146.58755	0.16386
4144.65891	0.16448
4142.73026	0.16448
4140.80161	0.16381
4138.87297	0.16273
4136.94432	0.16177
4135.01568	0.16140
4133.08703	0.16178
4131.15839	0.16273
4129.22974	0.16382
4127.30110	0.16444
4125.37245	0.16412
4123.44381	0.16287
4121.51516	0.16115
4119.58652	0.15959
4117.65787	0.15871
4115.72922	0.15883
4113.80058	0.15990
4111.87193	0.16148
4109.94329	0.16297
4108.01464	0.16404
4106.08600	0.16464
4104.15735	0.16482
4102.22871	0.16468
4100.30006	0.16435
4098.37142	0.16390
4096.44277	0.16322
4094.51413	0.16221
4092.58548	0.16097
4090.65683	0.15981
4088.72819	0.15909
4086.79954	0.15911
4084.87090	0.16007
4082.94225	0.16193
4081.01361	0.16437
4079.08496	0.16686
4077.15632	0.16888
4075.22767	0.17016
4073.29903	0.17067
4071.37038	0.17062
4069.44174	0.17031
4067.51309	0.17006
4065.58444	0.17014
4063.65580	0.17063
4061.72715	0.17139
4059.79851	0.17220
4057.86986	0.17287
4055.94122	0.17314
4054.01257	0.17281
4052.08393	0.17190
4050.15528	0.17062
4048.22664	0.16922
4046.29799	0.16784
4044.36935	0.16653
4042.44070	0.16540
4040.51206	0.16463
4038.58341	0.16444
4036.65476	0.16494
4034.72612	0.16604
4032.79747	0.16735
4030.86883	0.16828
4028.94018	0.16832
4027.01154	0.16735
4025.08289	0.16577
4023.15425	0.16424
4021.22560	0.16341
4019.29696	0.16361
4017.36831	0.16471
4015.43967	0.16616
4013.51102	0.16733
4011.58237	0.16773
4009.65373	0.16717
4007.72508	0.16591
4005.79644	0.16452
4003.86779	0.16360
4001.93915	0.16342
4000.01050	0.16390
3998.08186	0.16478
3996.15321	0.16573
3994.22457	0.16652
3992.29592	0.16712
3990.36728	0.16770
3988.43863	0.16844
3986.50998	0.16936
3984.58134	0.17039
3982.65269	0.17142
3980.72405	0.17234
3978.79540	0.17301
3976.86676	0.17328
3974.93811	0.17307
3973.00947	0.17231
3971.08082	0.17105
3969.15218	0.16942
3967.22353	0.16764
3965.29489	0.16597
3963.36624	0.16463
3961.43759	0.16383
3959.50895	0.16375
3957.58030	0.16446
3955.65166	0.16582
3953.72301	0.16749
3951.79437	0.16902
3949.86572	0.17007
3947.93708	0.17049
3946.00843	0.17042
3944.07979	0.17021
3942.15114	0.17019
3940.22250	0.17049
3938.29385	0.17094
3936.36521	0.17126
3934.43656	0.17119
3932.50791	0.17067
3930.57927	0.16983
3928.65062	0.16895
3926.72198	0.16833
3924.79333	0.16815
3922.86469	0.16834
3920.93604	0.16870
3919.00740	0.16896
3917.07875	0.16889
3915.15011	0.16843
3913.22146	0.16774
3911.29282	0.16714
3909.36417	0.16688
3907.43552	0.16704
3905.50688	0.16743
3903.57823	0.16771
3901.64959	0.16754
3899.72094	0.16677
3897.79230	0.16556
3895.86365	0.16432
3893.93501	0.16349
3892.00636	0.16335
3890.07772	0.16395
3888.14907	0.16509
3886.22043	0.16645
3884.29178	0.16773
3882.36313	0.16874
3880.43449	0.16941
3878.50584	0.16977
3876.57720	0.16985
3874.64855	0.16968
3872.71991	0.16928
3870.79126	0.16874
3868.86262	0.16817
3866.93397	0.16780
3865.00533	0.16785
3863.07668	0.16839
3861.14804	0.16929
3859.21939	0.17017
3857.29074	0.17055
3855.36210	0.16997
3853.43345	0.16833
3851.50481	0.16596
3849.57616	0.16359
3847.64752	0.16207
3845.71887	0.16194
3843.79023	0.16323
3841.86158	0.16543
3839.93294	0.16775
3838.00429	0.16943
3836.07565	0.17005
3834.14700	0.16969
3832.21835	0.16874
3830.28971	0.16772
3828.36106	0.16706
3826.43242	0.16701
3824.50377	0.16762
3822.57513	0.16865
3820.64648	0.16966
3818.71784	0.17014
3816.78919	0.16973
3814.86055	0.16839
3812.93190	0.16646
3811.00326	0.16457
3809.07461	0.16338
3807.14597	0.16327
3805.21732	0.16419
3803.28867	0.16578
3801.36003	0.16747
3799.43138	0.16876
3797.50274	0.16932
3795.57409	0.16910
3793.64545	0.16834
3791.71680	0.16743
3789.78816	0.16681
3787.85951	0.16682
3785.93087	0.16749
3784.00222	0.16858
3782.07358	0.16972
3780.14493	0.17060
3778.21628	0.17112
3776.28764	0.17147
3774.35899	0.17194
3772.43035	0.17272
3770.50170	0.17373
3768.57306	0.17463
3766.64441	0.17500
3764.71577	0.17459
3762.78712	0.17346
3760.85848	0.17196
3758.92983	0.17064
3757.00119	0.16998
3755.07254	0.17022
3753.14389	0.17127
3751.21525	0.17280
3749.28660	0.17443
3747.35796	0.17591
3745.42931	0.17718
3743.50067	0.17833
3741.57202	0.17949
3739.64338	0.18073
3737.71473	0.18191
3735.78609	0.18275
3733.85744	0.18307
3731.92880	0.18286
3730.00015	0.18239
3728.07150	0.18206
3726.14286	0.18235
3724.21421	0.18359
3722.28557	0.18577
3720.35692	0.18863
3718.42828	0.19175
3716.49963	0.19470
3714.57099	0.19723
3712.64234	0.19931
3710.71370	0.20113
3708.78505	0.20299
3706.85641	0.20509
3704.92776	0.20747
3702.99911	0.20999
3701.07047	0.21250
3699.14182	0.21499
3697.21318	0.21764
3695.28453	0.22079
3693.35589	0.22473
3691.42724	0.22958
3689.49860	0.23523
3687.56995	0.24147
3685.64131	0.24819
3683.71266	0.25541
3681.78402	0.26331
3679.85537	0.27198
3677.92673	0.28139
3675.99808	0.29125
3674.06943	0.30117
3672.14079	0.31085
3670.21214	0.32032
3668.28350	0.32989
3666.35485	0.34006
3664.42621	0.35126
3662.49756	0.36370
3660.56892	0.37724
3658.64027	0.39142
3656.71163	0.40564
3654.78298	0.41937
3652.85434	0.43231
3650.92569	0.44430
3648.99704	0.45541
3647.06840	0.46584
3645.13975	0.47593
3643.21111	0.48613
3641.28246	0.49689
3639.35382	0.50858
3637.42517	0.52129
3635.49653	0.53475
3633.56788	0.54839
3631.63924	0.56154
3629.71059	0.57374
3627.78195	0.58492
3625.85330	0.59541
3623.92465	0.60572
3621.99601	0.61635
3620.06736	0.62758
3618.13872	0.63934
3616.21007	0.65131
3614.28143	0.66303
3612.35278	0.67413
3610.42414	0.68445
3608.49549	0.69417
3606.56685	0.70366
3604.63820	0.71343
3602.70956	0.72395
3600.78091	0.73541
3598.85226	0.74764
3596.92362	0.76025
3594.99497	0.77280
3593.06633	0.78501
3591.13768	0.79682
3589.20904	0.80837
3587.28039	0.81997
3585.35175	0.83187
3583.42310	0.84412
3581.49446	0.85662
3579.56581	0.86914
3577.63717	0.88143
3575.70852	0.89332
3573.77988	0.90483
3571.85123	0.91620
3569.92258	0.92785
3567.99394	0.94021
3566.06529	0.95354
3564.13665	0.96772
3562.20800	0.98231
3560.27936	0.99665
3558.35071	1.01015
3556.42207	1.02261
3554.49342	1.03422
3552.56478	1.04549
3550.63613	1.05692
3548.70749	1.06879
3546.77884	1.08113
3544.85019	1.09381
3542.92155	1.10674
3540.99290	1.11994
3539.06426	1.13347
3537.13561	1.14731
3535.20697	1.16120
3533.27832	1.17477
3531.34968	1.18773
3529.42103	1.20002
3527.49239	1.21184
3525.56374	1.22361
3523.63510	1.23576
3521.70645	1.24857
3519.77780	1.26211
3517.84916	1.27622
3515.92051	1.29060
3513.99187	1.30485
3512.06322	1.31863
3510.13458	1.33177
3508.20593	1.34428
3506.27729	1.35635
3504.34864	1.36823
3502.42000	1.38017
3500.49135	1.39226
3498.56271	1.40449
3496.63406	1.41678
3494.70541	1.42910
3492.77677	1.44139
3490.84812	1.45357
3488.91948	1.46560
3486.99083	1.47747
3485.06219	1.48925
3483.13354	1.50107
3481.20490	1.51309
3479.27625	1.52539
3477.34761	1.53796
3475.41896	1.55066
3473.49032	1.56328
3471.56167	1.57566
3469.63302	1.58764
3467.70438	1.59912
3465.77573	1.61008
3463.84709	1.62062
3461.91844	1.63092
3459.98980	1.64124
3458.06115	1.65182
3456.13251	1.66280
3454.20386	1.67423
3452.27522	1.68599
3450.34657	1.69786
3448.41793	1.70961
3446.48928	1.72106
3444.56064	1.73214
3442.63199	1.74286
3440.70334	1.75331
3438.77470	1.76366
3436.84605	1.77406
3434.91741	1.78456
3432.98876	1.79501
3431.06012	1.80518
3429.13147	1.81478
3427.20283	1.82359
3425.27418	1.83159
3423.34554	1.83904
3421.41689	1.84638
3419.48825	1.85397
3417.55960	1.86199
3415.63095	1.87035
3413.70231	1.87878
3411.77366	1.88693
3409.84502	1.89457
3407.91637	1.90165
3405.98773	1.90829
3404.05908	1.91466
3402.13044	1.92094
3400.20179	1.92726
3398.27315	1.93363
3396.34450	1.93999
3394.41586	1.94618
3392.48721	1.95205
3390.55856	1.95753
3388.62992	1.96258
3386.70127	1.96729
3384.77263	1.97175
3382.84398	1.97599
3380.91534	1.97994
3378.98669	1.98344
3377.05805	1.98633
3375.12940	1.98860
3373.20076	1.99037
3371.27211	1.99188
3369.34347	1.99334
3367.41482	1.99487
3365.48617	1.99642
3363.55753	1.99785
3361.62888	1.99897
3359.70024	1.99969
3357.77159	2.00000
3355.84295	1.99996
3353.91430	1.99960
3351.98566	1.99894
3350.05701	1.99804
3348.12837	1.99702
3346.19972	1.99606
3344.27108	1.99534
3342.34243	1.99495
3340.41378	1.99479
3338.48514	1.99458
3336.55649	1.99397
3334.62785	1.99275
3332.69920	1.99092
3330.77056	1.98873
3328.84191	1.98655
3326.91327	1.98474
3324.98462	1.98348
3323.05598	1.98270
3321.12733	1.98212
3319.19869	1.98140
3317.27004	1.98031
3315.34140	1.97882
3313.41275	1.97707
3311.48410	1.97525
3309.55546	1.97355
3307.62681	1.97204
3305.69817	1.97068
3303.76952	1.96942
3301.84088	1.96824
3299.91223	1.96713
3297.98359	1.96603
3296.05494	1.96484
3294.12630	1.96339
3292.19765	1.96164
3290.26901	1.95965
3288.34036	1.95766
3286.41171	1.95589
3284.48307	1.95442
3282.55442	1.95313
3280.62578	1.95178
3278.69713	1.95009
3276.76849	1.94791
3274.83984	1.94534
3272.91120	1.94259
3270.98255	1.93981
3269.05391	1.93702
3267.12526	1.93413
3265.19662	1.93101
3263.26797	1.92761
3261.33932	1.92401
3259.41068	1.92039
3257.48203	1.91693
3255.55339	1.91367
3253.62474	1.91046
3251.69610	1.90704
3249.76745	1.90315
3247.83881	1.89861
3245.91016	1.89342
3243.98152	1.88776
3242.05287	1.88195
3240.12423	1.87629
3238.19558	1.87094
3236.26693	1.86584
3234.33829	1.86075
3232.40964	1.85542
3230.48100	1.84969
3228.55235	1.84357
3226.62371	1.83721
3224.69506	1.83072
3222.76642	1.82403
3220.83777	1.81698
3218.90913	1.80936
3216.98048	1.80113
3215.05184	1.79242
3213.12319	1.78345
3211.19455	1.77440
3209.26590	1.76529
3207.33725	1.75601
3205.40861	1.74644
3203.47996	1.73657
3201.55132	1.72657
3199.62267	1.71666
3197.69403	1.70699
3195.76538	1.69751
3193.83674	1.68793
3191.90809	1.67788
3189.97945	1.66702
3188.05080	1.65523
3186.12216	1.64261
3184.19351	1.62945
3182.26486	1.61611
3180.33622	1.60291
3178.40757	1.59000
3176.47893	1.57735
3174.55028	1.56482
3172.62164	1.55225
3170.69299	1.53955
3168.76435	1.52669
3166.83570	1.51376
3164.90706	1.50086
3162.97841	1.48809
3161.04977	1.47546
3159.12112	1.46298
3157.19247	1.45057
3155.26383	1.43814
3153.33518	1.42552
3151.40654	1.41254
3149.47789	1.39909
3147.54925	1.38515
3145.62060	1.37085
3143.69196	1.35645
3141.76331	1.34221
3139.83467	1.32835
3137.90602	1.31491
3135.97738	1.30174
3134.04873	1.28864
3132.12008	1.27540
3130.19144	1.26196
3128.26279	1.24837
3126.33415	1.23478
3124.40550	1.22140
3122.47686	1.20836
3120.54821	1.19566
3118.61957	1.18320
3116.69092	1.17077
3114.76228	1.15815
3112.83363	1.14516
3110.90499	1.13182
3108.97634	1.11833
3107.04769	1.10506
3105.11905	1.09234
3103.19040	1.08036
3101.26176	1.06901
3099.33311	1.05794
3097.40447	1.04671
3095.47582	1.03505
3093.54718	1.02293
3091.61853	1.01061
3089.68989	0.99841
3087.76124	0.98659
3085.83260	0.97520
3083.90395	0.96411
3081.97531	0.95313
3080.04666	0.94215
3078.11801	0.93117
3076.18937	0.92025
3074.26072	0.90945
3072.33208	0.89876
3070.40343	0.88817
3068.47479	0.87768
3066.54614	0.86736
3064.61750	0.85729
3062.68885	0.84747
3060.76021	0.83779
3058.83156	0.82803
3056.90292	0.81798
3054.97427	0.80763
3053.04562	0.79714
3051.11698	0.78683
3049.18833	0.77700
3047.25969	0.76779
3045.33104	0.75910
3043.40240	0.75074
3041.47375	0.74243
3039.54511	0.73402
3037.61646	0.72546
3035.68782	0.71681
3033.75917	0.70814
3031.83053	0.69947
3029.90188	0.69085
3027.97323	0.68235
3026.04459	0.67408
3024.11594	0.66614
3022.18730	0.65862
3020.25865	0.65155
3018.33001	0.64488
3016.40136	0.63851
3014.47272	0.63229
3012.54407	0.62607
3010.61543	0.61973
3008.68678	0.61326
3006.75814	0.60673
3004.82949	0.60034
3002.90084	0.59433
3000.97220	0.58885
2999.04355	0.58385
2997.11491	0.57910
2995.18626	0.57435
2993.25762	0.56943
2991.32897	0.56432
2989.40033	0.55913
2987.47168	0.55413
2985.54304	0.54950
2983.61439	0.54526
2981.68575	0.54140
2979.75710	0.53801
2977.82845	0.53522
2975.89981	0.53307
2973.97116	0.53148
2972.04252	0.53027
2970.11387	0.52917
2968.18523	0.52798
2966.25658	0.52664
2964.32794	0.52525
2962.39929	0.52394
2960.47065	0.52259
2958.54200	0.52085
2956.61336	0.51836
2954.68471	0.51500
2952.75607	0.51093
2950.82742	0.50653
2948.89877	0.50240
2946.97013	0.49907
2945.04148	0.49684
2943.11284	0.49575
2941.18419	0.49580
2939.25555	0.49694
2937.32690	0.49908
2935.39826	0.50209
2933.46961	0.50592
2931.54097	0.51060
2929.61232	0.51619
2927.68368	0.52267
2925.75503	0.52984
2923.82638	0.53690
2921.89774	0.54234
2919.96909	0.54421
2918.04045	0.54085
2916.11180	0.53149
2914.18316	0.51669
2912.25451	0.49835
2910.32587	0.47908
2908.39722	0.46129
2906.46858	0.44655
2904.53993	0.43535
2902.61129	0.42722
2900.68264	0.42112
2898.75399	0.41600
2896.82535	0.41112
2894.89670	0.40614
2892.96806	0.40104
2891.03941	0.39601
2889.11077	0.39134
2887.18212	0.38726
2885.25348	0.38385
2883.32483	0.38107
2881.39619	0.37878
2879.46754	0.37679
2877.53890	0.37488
2875.61025	0.37282
2873.68160	0.37049
2871.75296	0.36792
2869.82431	0.36531
2867.89567	0.36291
2865.96702	0.36105
2864.03838	0.36025
2862.10973	0.36126
2860.18109	0.36473
2858.25244	0.37069
2856.32380	0.37833
2854.39515	0.38584
2852.46651	0.39083
2850.53786	0.39103
2848.60922	0.38543
2846.68057	0.37480
2844.75192	0.36131
2842.82328	0.34756
2840.89463	0.33555
2838.96599	0.32619
2837.03734	0.31926
2835.10870	0.31384
2833.18005	0.30914
2831.25141	0.30483
2829.32276	0.30098
2827.39412	0.29774
2825.46547	0.29511
2823.53683	0.29295
2821.60818	0.29101
2819.67953	0.28912
2817.75089	0.28727
2815.82224	0.28559
2813.89360	0.28419
2811.96495	0.28307
2810.03631	0.28208
2808.10766	0.28101
2806.17902	0.27973
2804.25037	0.27815
2802.32173	0.27631
2800.39308	0.27434
2798.46444	0.27239
2796.53579	0.27055
2794.60714	0.26888
2792.67850	0.26735
2790.74985	0.26595
2788.82121	0.26464
2786.89256	0.26339
2784.96392	0.26209
2783.03527	0.26069
2781.10663	0.25925
2779.17798	0.25784
2777.24934	0.25650
2775.32069	0.25525
2773.39205	0.25417
2771.46340	0.25323
2769.53475	0.25232
2767.60611	0.25128
2765.67746	0.25006
2763.74882	0.24873
2761.82017	0.24740
2759.89153	0.24626
2757.96288	0.24546
2756.03424	0.24502
2754.10559	0.24473
2752.17695	0.24434
2750.24830	0.24369
2748.31966	0.24278
2746.39101	0.24175
2744.46236	0.24071
2742.53372	0.23972
2740.60507	0.23874
2738.67643	0.23772
2736.74778	0.23670
2734.81914	0.23576
2732.89049	0.23492
2730.96185	0.23413
2729.03320	0.23327
2727.10456	0.23221
2725.17591	0.23093
2723.24727	0.22962
2721.31862	0.22862
2719.38998	0.22817
2717.46133	0.22823
2715.53268	0.22858
2713.60404	0.22888
2711.67539	0.22883
2709.74675	0.22831
2707.81810	0.22748
2705.88946	0.22658
2703.96081	0.22580
2702.03217	0.22513
2700.10352	0.22447
2698.17488	0.22368
2696.24623	0.22273
2694.31759	0.22168
2692.38894	0.22068
2690.46029	0.21985
2688.53165	0.21922
2686.60300	0.21880
2684.67436	0.21856
2682.74571	0.21840
2680.81707	0.21823
2678.88842	0.21793
2676.95978	0.21744
2675.03113	0.21670
2673.10249	0.21577
2671.17384	0.21479
2669.24520	0.21392
2667.31655	0.21319
2665.38790	0.21256
2663.45926	0.21192
2661.53061	0.21119
2659.60197	0.21032
2657.67332	0.20932
2655.74468	0.20831
2653.81603	0.20740
2651.88739	0.20671
2649.95874	0.20625
2648.03010	0.20593
2646.10145	0.20564
2644.17281	0.20527
2642.24416	0.20477
2640.31551	0.20420
2638.38687	0.20369
2636.45822	0.20339
2634.52958	0.20334
2632.60093	0.20344
2630.67229	0.20357
2628.74364	0.20356
2626.81500	0.20319
2624.88635	0.20228
2622.95771	0.20091
2621.02906	0.19935
2619.10042	0.19798
2617.17177	0.19711
2615.24312	0.19692
2613.31448	0.19732
2611.38583	0.19792
2609.45719	0.19830
2607.52854	0.19824
2605.59990	0.19778
2603.67125	0.19704
2601.74261	0.19619
2599.81396	0.19534
2597.88532	0.19454
2595.95667	0.19379
2594.02803	0.19308
2592.09938	0.19248
2590.17074	0.19205
2588.24209	0.19178
2586.31344	0.19168
2584.38480	0.19178
2582.45615	0.19209
2580.52751	0.19256
2578.59886	0.19305
2576.67022	0.19334
2574.74157	0.19320
2572.81293	0.19251
2570.88428	0.19140
2568.95564	0.19010
2567.02699	0.18896
2565.09835	0.18835
2563.16970	0.18854
2561.24105	0.18950
2559.31241	0.19101
2557.38376	0.19267
2555.45512	0.19407
2553.52647	0.19481
2551.59783	0.19484
2549.66918	0.19440
2547.74054	0.19377
2545.81189	0.19306
2543.88325	0.19222
2541.95460	0.19117
2540.02596	0.18979
2538.09731	0.18807
2536.16866	0.18631
2534.24002	0.18497
2532.31137	0.18443
2530.38273	0.18483
2528.45408	0.18618
2526.52544	0.18823
2524.59679	0.19040
2522.66815	0.19200
2520.73950	0.19264
2518.81086	0.19240
2516.88221	0.19167
2514.95357	0.19091
2513.02492	0.19057
2511.09627	0.19084
2509.16763	0.19159
2507.23898	0.19246
2505.31034	0.19308
2503.38169	0.19321
2501.45305	0.19264
2499.52440	0.19139
2497.59576	0.18983
2495.66711	0.18860
2493.73847	0.18831
2491.80982	0.18917
2489.88118	0.19092
2487.95253	0.19289
2486.02389	0.19430
2484.09524	0.19461
2482.16659	0.19373
2480.23795	0.19188
2478.30930	0.18954
2476.38066	0.18723
2474.45201	0.18550
2472.52337	0.18480
2470.59472	0.18531
2468.66608	0.18679
2466.73743	0.18868
2464.80879	0.19035
2462.88014	0.19140
2460.95150	0.19185
2459.02285	0.19200
2457.09420	0.19223
2455.16556	0.19271
2453.23691	0.19325
2451.30827	0.19359
2449.37962	0.19368
2447.45098	0.19366
2445.52233	0.19374
2443.59369	0.19408
2441.66504	0.19451
2439.73640	0.19462
2437.80775	0.19400
2435.87911	0.19264
2433.95046	0.19100
2432.02181	0.18970
2430.09317	0.18913
2428.16452	0.18935
2426.23588	0.18998
2424.30723	0.19059
2422.37859	0.19090
2420.44994	0.19096
2418.52130	0.19111
2416.59265	0.19169
2414.66401	0.19276
2412.73536	0.19405
2410.80672	0.19522
2408.87807	0.19614
2406.94942	0.19683
2405.02078	0.19741
2403.09213	0.19806
2401.16349	0.19889
2399.23484	0.19980
2397.30620	0.20052
2395.37755	0.20085
2393.44891	0.20075
2391.52026	0.20034
2389.59162	0.19984
2387.66297	0.19952
2385.73433	0.19968
2383.80568	0.20063
2381.87703	0.20257
2379.94839	0.20549
2378.01974	0.20907
2376.09110	0.21272
2374.16245	0.21563
2372.23381	0.21695
2370.30516	0.21609
2368.37652	0.21295
2366.44787	0.20801
2364.51923	0.20219
2362.59058	0.19659
2360.66194	0.19222
2358.73329	0.18978
2356.80465	0.18946
2354.87600	0.19103
2352.94735	0.19395
2351.01871	0.19767
2349.09006	0.20169
2347.16142	0.20560
2345.23277	0.20895
2343.30413	0.21139
2341.37548	0.21263
2339.44684	0.21257
2337.51819	0.21137
2335.58955	0.20946
2333.66090	0.20747
2331.73226	0.20602
2329.80361	0.20555
2327.87496	0.20615
2325.94632	0.20755
2324.01767	0.20920
2322.08903	0.21055
2320.16038	0.21120
2318.23174	0.21112
2316.30309	0.21065
2314.37445	0.21030
2312.44580	0.21056
2310.51716	0.21156
2308.58851	0.21306
2306.65987	0.21458
2304.73122	0.21562
2302.80257	0.21591
2300.87393	0.21538
2298.94528	0.21427
2297.01664	0.21291
2295.08799	0.21167
2293.15935	0.21081
2291.23070	0.21061
2289.30206	0.21131
2287.37341	0.21293
2285.44477	0.21514
2283.51612	0.21728
2281.58748	0.21858
2279.65883	0.21857
2277.73018	0.21733
2275.80154	0.21549
2273.87289	0.21392
2271.94425	0.21323
2270.01560	0.21339
2268.08696	0.21389
2266.15831	0.21411
2264.22967	0.21377
2262.30102	0.21315
2260.37238	0.21286
2258.44373	0.21361
2256.51509	0.21575
2254.58644	0.21902
2252.65779	0.22255
2250.72915	0.22523
2248.80050	0.22612
2246.87186	0.22473
2244.94321	0.22132
2243.01457	0.21708
2241.08592	0.21348
2239.15728	0.21140
2237.22863	0.21103
2235.29999	0.21220
2233.37134	0.21451
2231.44270	0.21723
2229.51405	0.21955
2227.58541	0.22094
2225.65676	0.22127
2223.72811	0.22057
2221.79947	0.21915
2219.87082	0.21780
2217.94218	0.21743
2216.01353	0.21824
2214.08489	0.21944
2212.15624	0.22010
2210.22760	0.21994
2208.29895	0.21914
2206.37031	0.21761
2204.44166	0.21531
2202.51302	0.21245
2200.58437	0.20909
2198.65572	0.20517
2196.72708	0.20089
2194.79843	0.19665
2192.86979	0.19259
2190.94114	0.18889
2189.01250	0.18639
2187.08385	0.18646
2185.15521	0.18994
2183.22656	0.19669
2181.29792	0.20547
2179.36927	0.21376
2177.44063	0.21897
2175.51198	0.22032
2173.58333	0.21915
2171.65469	0.21734
2169.72604	0.21594
2167.79740	0.21477
2165.86875	0.21250
2163.94011	0.20721
2162.01146	0.19842
2160.08282	0.18841
2158.15417	0.18082
2156.22553	0.17830
2154.29688	0.18134
2152.36824	0.18807
2150.43959	0.19500
2148.51094	0.19888
2146.58230	0.19894
2144.65365	0.19690
2142.72501	0.19515
2140.79636	0.19524
2138.86772	0.19744
2136.93907	0.20093
2135.01043	0.20470
2133.08178	0.20847
2131.15314	0.21271
2129.22449	0.21772
2127.29585	0.22325
2125.36720	0.22882
2123.43856	0.23382
2121.50991	0.23772
2119.58126	0.24032
2117.65262	0.24164
2115.72397	0.24137
2113.79533	0.23916
2111.86668	0.23544
2109.93804	0.23153
2108.00939	0.22870
2106.08075	0.22746
2104.15210	0.22747
2102.22346	0.22772
2100.29481	0.22689
2098.36617	0.22429
2096.43752	0.22026
2094.50887	0.21588
2092.58023	0.21229
2090.65158	0.21016
2088.72294	0.20957
2086.79429	0.21003
2084.86565	0.21073
2082.93700	0.21101
2081.00836	0.21058
2079.07971	0.20948
2077.15107	0.20814
2075.22242	0.20706
2073.29378	0.20660
2071.36513	0.20669
2069.43648	0.20690
2067.50784	0.20665
2065.57919	0.20541
2063.65055	0.20303
2061.72190	0.19999
2059.79326	0.19719
2057.86461	0.19540
2055.93597	0.19467
2054.00732	0.19409
2052.07868	0.19221
2050.15003	0.18773
2048.22139	0.18046
2046.29274	0.17157
2044.36409	0.16312
2042.43545	0.15696
2040.50680	0.15393
2038.57816	0.15360
2036.64951	0.15471
2034.72087	0.15582
2032.79222	0.15605
2030.86358	0.15528
2028.93493	0.15400
2027.00629	0.15278
2025.07764	0.15197
2023.14900	0.15164
2021.22035	0.15163
2019.29170	0.15175
2017.36306	0.15206
2015.43441	0.15305
2013.50577	0.15560
2011.57712	0.16051
2009.64848	0.16785
2007.71983	0.17677
2005.79119	0.18574
2003.86254	0.19305
2001.93390	0.19751
2000.00525	0.19899
1998.07661	0.19843
1996.14796	0.19719
1994.21932	0.19630
1992.29067	0.19590
1990.36202	0.19525
1988.43338	0.19334
1986.50473	0.18962
1984.57609	0.18416
1982.64744	0.17759
1980.71880	0.17089
1978.79015	0.16508
1976.86151	0.16011
1974.93286	0.15693
1973.00422	0.15649
1971.07557	0.15937
1969.14693	0.16565
1967.21828	0.17436
1965.28963	0.18373
1963.36099	0.19158
1961.43234	0.19591
1959.50370	0.19556
1957.57505	0.19071
1955.64641	0.18285
1953.71776	0.17419
1951.78912	0.16693
1949.86047	0.16271
1947.93183	0.16218
1946.00318	0.16483
1944.07454	0.16926
1942.14589	0.17372
1940.21724	0.17670
1938.28860	0.17743
1936.35995	0.17602
1934.43131	0.17321
1932.50266	0.16992
1930.57402	0.16681
1928.64537	0.16411
1926.71673	0.16170
1924.78808	0.15930
1922.85944	0.15672
1920.93079	0.15412
1919.00215	0.15184
1917.07350	0.15020
1915.14485	0.14928
1913.21621	0.14888
1911.28756	0.14861
1909.35892	0.14807
1907.43027	0.14708
1905.50163	0.14578
1903.57298	0.14450
1901.64434	0.14353
1899.71569	0.14293
1897.78705	0.14245
1895.85840	0.14171
1893.92976	0.14040
1892.00111	0.13846
1890.07246	0.13605
1888.14382	0.13352
1886.21517	0.13122
1884.28653	0.12937
1882.35788	0.12806
1880.42924	0.12732
1878.50059	0.12709
1876.57195	0.12727
1874.64330	0.12763
1872.71466	0.12782
1870.78601	0.12750
1868.85737	0.12647
1866.92872	0.12482
1865.00008	0.12294
1863.07143	0.12137
1861.14278	0.12048
1859.21414	0.12029
1857.28549	0.12047
1855.35685	0.12053
1853.42820	0.12005
1851.49956	0.11883
1849.57091	0.11703
1847.64227	0.11497
1845.71362	0.11298
1843.78498	0.11121
1841.85633	0.10970
1839.92769	0.10841
1837.99904	0.10728
1836.07039	0.10626
1834.14175	0.10532
1832.21310	0.10451
1830.28446	0.10388
1828.35581	0.10346
1826.42717	0.10329
1824.49852	0.10336
1822.56988	0.10364
1820.64123	0.10401
1818.71259	0.10432
1816.78394	0.10447
1814.85530	0.10440
1812.92665	0.10411
1810.99800	0.10361
1809.06936	0.10292
1807.14071	0.10209
1805.21207	0.10118
1803.28342	0.10029
1801.35478	0.09953
1799.42613	0.09899
1797.49749	0.09864
1795.56884	0.09839
1793.64020	0.09812
1791.71155	0.09780
1789.78291	0.09752
1787.85426	0.09747
1785.92561	0.09786
1783.99697	0.09876
1782.06832	0.10005
1780.13968	0.10154
1778.21103	0.10305
1776.28239	0.10450
1774.35374	0.10591
1772.42510	0.10737
1770.49645	0.10898
1768.56781	0.11070
1766.63916	0.11245
1764.71052	0.11415
1762.78187	0.11583
1760.85322	0.11762
1758.92458	0.11973
1756.99593	0.12235
1755.06729	0.12556
1753.13864	0.12927
1751.21000	0.13330
1749.28135	0.13747
1747.35271	0.14170
1745.42406	0.14605
1743.49542	0.15064
1741.56677	0.15560
1739.63813	0.16092
1737.70948	0.16649
1735.78084	0.17211
1733.85219	0.17762
1731.92354	0.18303
1729.99490	0.18857
1728.06625	0.19456
1726.13761	0.20129
1724.20896	0.20884
1722.28032	0.21704
1720.35167	0.22554
1718.42303	0.23399
1716.49438	0.24225
1714.56574	0.25050
1712.63709	0.25920
1710.70845	0.26895
1708.77980	0.28022
1706.85115	0.29326
1704.92251	0.30797
1702.99386	0.32392
1701.06522	0.34054
1699.13657	0.35730
1697.20793	0.37392
1695.27928	0.39051
1693.35064	0.40747
1691.42199	0.42532
1689.49335	0.44440
1687.56470	0.46476
1685.63606	0.48611
1683.70741	0.50798
1681.77876	0.52998
1679.85012	0.55196
1677.92147	0.57402
1675.99283	0.59634
1674.06418	0.61903
1672.13554	0.64207
1670.20689	0.66525
1668.27825	0.68828
1666.34960	0.71096
1664.42096	0.73321
1662.49231	0.75506
1660.56367	0.77649
1658.63502	0.79736
1656.70637	0.81738
1654.77773	0.83603
1652.84908	0.85278
1650.92044	0.86722
1648.99179	0.87927
1647.06315	0.88916
1645.13450	0.89721
1643.20586	0.90368
1641.27721	0.90859
1639.34857	0.91166
1637.41992	0.91236
1635.49128	0.91015
1633.56263	0.90465
1631.63399	0.89579
1629.70534	0.88373
1627.77669	0.86878
1625.84805	0.85135
1623.91940	0.83185
1621.99076	0.81068
1620.06211	0.78824
1618.13347	0.76494
1616.20482	0.74122
1614.27618	0.71750
1612.34753	0.69420
1610.41889	0.67170
1608.49024	0.65026
1606.56160	0.63004
1604.63295	0.61105
1602.70430	0.59316
1600.77566	0.57616
1598.84701	0.55979
1596.91837	0.54383
1594.98972	0.52813
1593.06108	0.51265
1591.13243	0.49748
1589.20379	0.48284
1587.27514	0.46900
1585.34650	0.45624
1583.41785	0.44468
1581.48921	0.43428
1579.56056	0.42481
1577.63191	0.41591
1575.70327	0.40724
1573.77462	0.39864
1571.84598	0.39021
1569.91733	0.38225
1567.98869	0.37510
1566.06004	0.36890
1564.13140	0.36353
1562.20275	0.35853
1560.27411	0.35330
1558.34546	0.34730
1556.41682	0.34031
1554.48817	0.33256
1552.55952	0.32459
1550.63088	0.31699
1548.70223	0.31020
1546.77359	0.30423
1544.84494	0.29868
1542.91630	0.29290
1540.98765	0.28631
1539.05901	0.27866
1537.13036	0.27016
1535.20172	0.26138
1533.27307	0.25303
1531.34443	0.24571
1529.41578	0.23966
1527.48713	0.23480
1525.55849	0.23070
1523.62984	0.22681
1521.70120	0.22261
1519.77255	0.21776
1517.84391	0.21221
1515.91526	0.20610
1513.98662	0.19972
1512.05797	0.19328
1510.12933	0.18689
1508.20068	0.18051
1506.27204	0.17404
1504.34339	0.16746
1502.41475	0.16089
1500.48610	0.15455
1498.55745	0.14864
1496.62881	0.14322
1494.70016	0.13826
1492.77152	0.13365
1490.84287	0.12930
1488.91423	0.12523
1486.98558	0.12159
1485.05694	0.11868
1483.12829	0.11685
1481.19965	0.11644
1479.27100	0.11768
1477.34236	0.12056
1475.41371	0.12474
1473.48506	0.12963
1471.55642	0.13446
1469.62777	0.13855
1467.69913	0.14148
1465.77048	0.14312
1463.84184	0.14360
1461.91319	0.14310
1459.98455	0.14180
1458.05590	0.13971
1456.12726	0.13683
1454.19861	0.13320
1452.26997	0.12904
1450.34132	0.12472
1448.41267	0.12066
1446.48403	0.11722
1444.55538	0.11459
1442.62674	0.11274
1440.69809	0.11148
1438.76945	0.11061
1436.84080	0.10998
1434.91216	0.10958
1432.98351	0.10953
1431.05487	0.10999
1429.12622	0.11102
1427.19758	0.11254
1425.26893	0.11426
1423.34028	0.11583
1421.41164	0.11696
1419.48299	0.11755
1417.55435	0.11775
1415.62570	0.11787
1413.69706	0.11827
1411.76841	0.11910
1409.83977	0.12032
1407.91112	0.12163
1405.98248	0.12267
1404.05383	0.12315
1402.12519	0.12297
1400.19654	0.12217
1398.26789	0.12093
1396.33925	0.11945
1394.41060	0.11789
1392.48196	0.11630
1390.55331	0.11470
1388.62467	0.11304
1386.69602	0.11124
1384.76738	0.10925
1382.83873	0.10705
1380.91009	0.10463
1378.98144	0.10203
1377.05280	0.09927
1375.12415	0.09635
1373.19551	0.09323
1371.26686	0.08991
1369.33821	0.08642
1367.40957	0.08287
1365.48092	0.07936
1363.55228	0.07601
1361.62363	0.07286
1359.69499	0.06988
1357.76634	0.06698
1355.83770	0.06406
1353.90905	0.06102
1351.98041	0.05784
1350.05176	0.05456
1348.12312	0.05130
1346.19447	0.04821
1344.26582	0.04539
1342.33718	0.04292
1340.40853	0.04074
1338.47989	0.03878
1336.55124	0.03693
1334.62260	0.03513
1332.69395	0.03338
1330.76531	0.03170
1328.83666	0.03010
1326.90802	0.02860
1324.97937	0.02712
1323.05073	0.02562
1321.12208	0.02401
1319.19343	0.02225
1317.26479	0.02033
1315.33614	0.01829
1313.40750	0.01623
1311.47885	0.01425
1309.55021	0.01243
1307.62156	0.01082
1305.69292	0.00940
1303.76427	0.00813
1301.83563	0.00691
1299.90698	0.00569
1297.97834	0.00449
1296.04969	0.00336
1294.12104	0.00240
1292.19240	0.00166
1290.26375	0.00116
1288.33511	0.00082
1286.40646	0.00055
1284.47782	0.00030
1282.54917	0.00009
1280.62053	-0.00000
1278.69188	0.00013
1276.76324	0.00053
1274.83459	0.00113
1272.90595	0.00181
1270.97730	0.00238
1269.04866	0.00271
1267.12001	0.00277
1265.19136	0.00258
1263.26272	0.00225
1261.33407	0.00188
1259.40543	0.00155
1257.47678	0.00128
1255.54814	0.00107
1253.61949	0.00090
1251.69085	0.00078
1249.76220	0.00075
1247.83356	0.00084
1245.90491	0.00108
1243.97627	0.00144
1242.04762	0.00186
1240.11897	0.00224
1238.19033	0.00249
1236.26168	0.00256
1234.33304	0.00248
1232.40439	0.00232
1230.47575	0.00215
1228.54710	0.00205
1226.61846	0.00206
1224.68981	0.00216
1222.76117	0.00230
1220.83252	0.00246
1218.90388	0.00257
1216.97523	0.00261
1215.04658	0.00255
1213.11794	0.00243
1211.18929	0.00235
1209.26065	0.00240
1207.33200	0.00260
1205.40336	0.00290
1203.47471	0.00315
1201.54607	0.00327
1199.61742	0.00328
1197.68878	0.00335
1195.76013	0.00376
1193.83149	0.00483
1191.90284	0.00673
1189.97419	0.00947
1188.04555	0.01293
1186.11690	0.01688
1184.18826	0.02110
1182.25961	0.02535
1180.33097	0.02950
1178.40232	0.03366
1176.47368	0.03809
1174.54503	0.04309
1172.61639	0.04887
1170.68774	0.05538
1168.75910	0.06223
1166.83045	0.06882
1164.90180	0.07459
1162.97316	0.07936
1161.04451	0.08330
1159.11587	0.08679
1157.18722	0.09031
1155.25858	0.09438
1153.32993	0.09929
1151.40129	0.10504
1149.47264	0.11147
1147.54400	0.11845
1145.61535	0.12590
1143.68671	0.13372
1141.75806	0.14198
1139.82942	0.15087
1137.90077	0.16062
1135.97212	0.17123
1134.04348	0.18252
1132.11483	0.19419
1130.18619	0.20585
1128.25754	0.21710
1126.32890	0.22773
1124.40025	0.23783
1122.47161	0.24759
1120.54296	0.25712
1118.61432	0.26633
1116.68567	0.27512
1114.75703	0.28347
1112.82838	0.29152
1110.89973	0.29965
1108.97109	0.30837
1107.04244	0.31804
1105.11380	0.32858
1103.18515	0.33973
1101.25651	0.35120
1099.32786	0.36277
1097.39922	0.37423
1095.47057	0.38543
1093.54193	0.39623
1091.61328	0.40642
1089.68464	0.41579
1087.75599	0.42425
1085.82734	0.43191
1083.89870	0.43880
1081.97005	0.44470
1080.04141	0.44917
1078.11276	0.45174
1076.18412	0.45216
1074.25547	0.45064
1072.32683	0.44776
1070.39818	0.44430
1068.46954	0.44082
1066.54089	0.43747
1064.61225	0.43397
1062.68360	0.42981
1060.75495	0.42472
1058.82631	0.41880
1056.89766	0.41235
1054.96902	0.40572
1053.04037	0.39924
1051.11173	0.39324
1049.18308	0.38808
1047.25444	0.38420
1045.32579	0.38215
1043.39715	0.38228
1041.46850	0.38448
1039.53986	0.38802
1037.61121	0.39182
1035.68256	0.39476
1033.75392	0.39609
1031.82527	0.39553
1029.89663	0.39318
1027.96798	0.38934
1026.03934	0.38433
1024.11069	0.37845
1022.18205	0.37196
1020.25340	0.36511
1018.32476	0.35832
1016.39611	0.35194
1014.46747	0.34610
1012.53882	0.34072
1010.61018	0.33559
1008.68153	0.33045
1006.75288	0.32506
1004.82424	0.31926
1002.89559	0.31315
1000.96695	0.30691
999.03830	0.30079
997.10966	0.29501
995.18101	0.28968
993.25237	0.28471
991.32372	0.27974
989.39508	0.27429
987.46643	0.26775
985.53779	0.25958
983.60914	0.24940
981.68049	0.23706
979.75185	0.22264
977.82320	0.20642
975.89456	0.18898
973.96591	0.17102
972.03727	0.15326
970.10862	0.13640
968.17998	0.12091
966.25133	0.10691
964.32269	0.09419
962.39404	0.08249
960.46540	0.07173
958.53675	0.06205
956.60810	0.05379
954.67946	0.04722
952.75081	0.04227
950.82217	0.03848
948.89352	0.03532
946.96488	0.03246
945.03623	0.02991
943.10759	0.02793
941.17894	0.02685
939.25030	0.02676
937.32165	0.02738
935.39301	0.02832
933.46436	0.02938
931.53571	0.03060
929.60707	0.03206
927.67842	0.03379
925.74978	0.03561
923.82113	0.03726
921.89249	0.03854
919.96384	0.03951
918.03520	0.04046
916.10655	0.04172
914.17791	0.04346
912.24926	0.04549
910.32062	0.04731
908.39197	0.04851
906.46333	0.04922
904.53468	0.04989
902.60603	0.05093
900.67739	0.05253
898.74874	0.05465
896.82010	0.05703
894.89145	0.05926
892.96281	0.06112
891.03416	0.06286
889.10552	0.06495
887.17687	0.06776
885.24823	0.07134
883.31958	0.07554
881.39094	0.08022
879.46229	0.08518
877.53364	0.09014
875.60500	0.09492
873.67635	0.09962
871.74771	0.10445
869.81906	0.10958
867.89042	0.11504
865.96177	0.12089
864.03313	0.12703
862.10448	0.13327
860.17584	0.13939
858.24719	0.14531
856.31855	0.15100
854.38990	0.15643
852.46125	0.16160
850.53261	0.16660
848.60396	0.17168
846.67532	0.17721
844.74667	0.18352
842.81803	0.19079
840.88938	0.19897
838.96074	0.20778
837.03209	0.21669
835.10345	0.22507
833.17480	0.23249
831.24616	0.23884
829.31751	0.24435
827.38886	0.24958
825.46022	0.25523
823.53157	0.26186
821.60293	0.26959
819.67428	0.27830
817.74564	0.28783
815.81699	0.29823
813.88835	0.30968
811.95970	0.32254
810.03106	0.33715
808.10241	0.35348
806.17377	0.37085
804.24512	0.38805
802.31647	0.40371
800.38783	0.41653
798.45918	0.42566
796.53054	0.43115
794.60189	0.43410
792.67325	0.43619
790.74460	0.43908
788.81596	0.44409
786.88731	0.45183
784.95867	0.46190
783.03002	0.47308
781.10138	0.48389
779.17273	0.49318
777.24409	0.50028
775.31544	0.50504
773.38679	0.50799
771.45815	0.51002
769.52950	0.51188
767.60086	0.51404
765.67221	0.51678
763.74357	0.52022
761.81492	0.52428
759.88628	0.52880
757.95763	0.53368
756.02899	0.53896
754.10034	0.54458
752.17170	0.55038
750.24305	0.55618
748.31440	0.56179
746.38576	0.56708
744.45711	0.57198
742.52847	0.57666
740.59982	0.58152
738.67118	0.58693
736.74253	0.59312
734.81389	0.60012
732.88524	0.60786
730.95660	0.61608
729.02795	0.62435
727.09931	0.63211
725.17066	0.63890
723.24201	0.64447
721.31337	0.64891
719.38472	0.65263
717.45608	0.65623
715.52743	0.66028
713.59879	0.66503
711.67014	0.67038
709.74150	0.67605
707.81285	0.68185
705.88421	0.68780
703.95556	0.69409
702.02692	0.70087
700.09827	0.70808
698.16962	0.71534
696.24098	0.72205
694.31233	0.72763
692.38369	0.73190
690.45504	0.73513
688.52640	0.73797
686.59775	0.74105
684.66911	0.74466
682.74046	0.74867
680.81182	0.75273
678.88317	0.75675
676.95453	0.76096
675.02588	0.76580
673.09723	0.77153
671.16859	0.77789
669.23994	0.78408
667.31130	0.78899
665.38265	0.79198
663.45401	0.79318
661.52536	0.79326
659.59672	0.79316
657.66807	0.79369
655.73943	0.79542
653.81078	0.79845
651.88214	0.80250
649.95349	0.80703
648.02485	0.81134
646.09620	0.81474
644.16755	0.81681
642.23891	0.81773
640.31026	0.81809
638.38162	0.81845
636.45297	0.81902
634.52433	0.81983
632.59568	0.82156
630.66704	0.82618
628.73839	0.83652
626.80975	0.85483
624.88110	0.88093
622.95246	0.91110
621.02381	0.93872
619.09516	0.95718
617.16652	0.96312
615.23787	0.95784
613.30923	0.94614
611.38058	0.93369
609.45194	0.92451
607.52329	0.91969
605.59465	0.91795
603.66600	0.91757
601.73736	0.91767
599.80871	0.91812
597.88007	0.91883
595.95142	0.91936
594.02277	0.91912
592.09413	0.91776
590.16548	0.91552
588.23684	0.91329
586.30819	0.91206
584.37955	0.91243
582.45090	0.91444
580.52226	0.91779
578.59361	0.92210
576.66497	0.92698
574.73632	0.93207
572.80768	0.93708
570.87903	0.94188
568.95038	0.94670
567.02174	0.95203
565.09309	0.95850
563.16445	0.96658
561.23580	0.97630
559.30716	0.98713
557.37851	0.99814
555.44987	1.00821
553.52122	1.01646
551.59258	1.02250
549.66393	1.02661
547.73529	1.02960
545.80664	1.03252
543.87800	1.03624
541.94935	1.04121
540.02070	1.04748
538.09206	1.05477
536.16341	1.06259
534.23477	1.07040
532.30612	1.07768
530.37748	1.08386
528.44883	1.08821
526.52019	1.08992
524.59154	1.08835
522.66290	1.08318
520.73425	1.07453
518.80561	1.06319
516.87696	1.05048
514.94831	1.03798
513.01967	1.02696
511.09102	1.01798
509.16238	1.01088
507.23373	1.00490
505.30509	0.99919
503.37644	0.99323
501.44780	0.98714
499.51915	0.98153
497.59051	0.97729
495.66186	0.97528
493.73322	0.97632
491.80457	0.98111
489.87592	0.99024
487.94728	1.00406
486.01863	1.02243
484.08999	1.04452
482.16134	1.06878
480.23270	1.09317
478.30405	1.11550
476.37541	1.13392
474.44676	1.14719
472.51812	1.15484
470.58947	1.15716
468.66083	1.15492
466.73218	1.14897
464.80353	1.13979
462.87489	1.12733
460.94624	1.11112
459.01760	1.09079
457.08895	1.06651
455.16031	1.03935
453.23166	1.01115
451.30302	0.98403
449.37437	0.95961
447.44573	0.93857
445.51708	0.92068
443.58844	0.90514
441.65979	0.89122
439.73114	0.87857
437.80250	0.86729
435.87385	0.85765
433.94521	0.84977
432.01656	0.84335
430.08792	0.83773
428.15927	0.83213
426.23063	0.82586
424.30198	0.81862
422.37334	0.81035
420.44469	0.80121
418.51605	0.79135
416.58740	0.78087
414.65876	0.76975
412.73011	0.75806
410.80146	0.74613
408.87282	0.73482
406.94417	0.72523
405.01553	0.71829
403.08688	0.71416
401.15824	0.71185
399.22959	0.70931
397.30095	0.70403
395.37230	0.69404
393.44366	0.67870
391.51501	0.65901
389.58637	0.63732
387.65772	0.61676
385.72907	0.60033
383.80043	0.59012
381.87178	0.58675
379.94314	0.58921
378.01449	0.59497
376.08585	0.60059
374.15720	0.60266
372.22856	0.59887
370.29991	0.58864
368.37127	0.57317
366.44262	0.55504
364.51398	0.53725
362.58533	0.52222
360.65668	0.51097
358.72804	0.50296
356.79939	0.49650
354.87075	0.48958
352.94210	0.48073
351.01346	0.46957
349.08481	0.45676
347.15617	0.44347
345.22752	0.43066
343.29888	0.41864
341.37023	0.40713
339.44159	0.39573
337.51294	0.38434
335.58429	0.37331
333.65565	0.36314
331.72700	0.35413
329.79836	0.34616
327.86971	0.33864
325.94107	0.33076
324.01242	0.32176
322.08378	0.31122
320.15513	0.29910
318.22649	0.28576
316.29784	0.27184
314.36920	0.25832
312.44055	0.24626
310.51190	0.23648
308.58326	0.22903
306.65461	0.22314
304.72597	0.21765
302.79732	0.21155
300.86868	0.20461
298.94003	0.19749
297.01139	0.19155
295.08274	0.18809
293.15410	0.18760
291.22545	0.18949
289.29681	0.19234
287.36816	0.19458
285.43952	0.19507
283.51087	0.19342
281.58222	0.19003
279.65358	0.18597
277.72493	0.18256
275.79629	0.18086
273.86764	0.18132
271.93900	0.18383
270.01035	0.18782
268.08171	0.19337
266.15306	0.19886
264.22442	0.20353
262.29577	0.20719
260.36713	0.21002
258.43848	0.21245
256.50983	0.21509
254.58119	0.21843
252.65254	0.22246
250.72390	0.22652
248.79525	0.22939
246.86661	0.22977
244.93796	0.22676
243.00932	0.22031
241.08067	0.21152
239.15203	0.20259
237.22338	0.19654
235.29474	0.19633
233.36609	0.20397
231.43744	0.21970
229.50880	0.24155
227.58015	0.26562
225.65151	0.28735
223.72286	0.30306
221.79422	0.31115
219.86557	0.31235
217.93693	0.30919
216.00828	0.30495
214.07964	0.30272
212.15099	0.30483
210.22235	0.31237
208.29370	0.32499
206.36505	0.34082
204.43641	0.35694
202.50776	0.37018
200.57912	0.37817
198.65047	0.38012
196.72183	0.37658
194.79318	0.36878
192.86454	0.35816
190.93589	0.34642
189.00725	0.33564
187.07860	0.32830
185.14996	0.32685
183.22131	0.33280
181.29267	0.34582
179.36402	0.36392
177.43537	0.38452
175.50673	0.40548
173.57808	0.42546
171.64944	0.44355
169.72079	0.45859
167.79215	0.46872
165.86350	0.47213
163.93486	0.46846
162.00621	0.46004
160.07757	0.45012
158.14892	0.44160
156.22028	0.43633
154.29163	0.43633
152.36298	0.43633
150.43434	0.43633
148.50569	0.43633
