4497.60101	0.09644
4495.67236	0.09644
4493.74372	0.09644
4491.81507	0.09644
4489.88643	0.09644
4487.95778	0.09248
4486.02914	0.08926
4484.10049	0.08875
4482.17185	0.09201
4480.24320	0.09880
4478.31455	0.10638
4476.38591	0.11192
4474.45726	0.11381
4472.52862	0.11222
4470.59997	0.10875
4468.67133	0.10535
4466.74268	0.10335
4464.81404	0.10307
4462.88539	0.10399
4460.95675	0.10510
4459.02810	0.10527
4457.09946	0.10377
4455.17081	0.10069
4453.24216	0.09676
4451.31352	0.09292
4449.38487	0.08986
4447.45623	0.08759
4445.52758	0.08559
4443.59894	0.08337
4441.67029	0.08128
4439.74165	0.08063
4437.81300	0.08270
4435.88436	0.08782
4433.95571	0.09499
4432.02707	0.10213
4430.09842	0.10681
4428.16978	0.10739
4426.24113	0.10392
4424.31248	0.09798
4422.38384	0.09162
4420.45519	0.08647
4418.52655	0.08356
4416.59790	0.08321
4414.66926	0.08514
4412.74061	0.08877
4410.81197	0.09346
4408.88332	0.09837
4406.95468	0.10231
4405.02603	0.10411
4403.09739	0.10337
4401.16874	0.10083
4399.24009	0.09805
4397.31145	0.09654
4395.38280	0.09703
4393.45416	0.09932
4391.52551	0.10242
4389.59687	0.10501
4387.66822	0.10613
4385.73958	0.10570
4383.81093	0.10416
4381.88229	0.10189
4379.95364	0.09921
4378.02500	0.09653
4376.09635	0.09401
4374.16770	0.09156
4372.23906	0.08949
4370.31041	0.08864
4368.38177	0.08950
4366.45312	0.09177
4364.52448	0.09487
4362.59583	0.09799
4360.66719	0.09988
4358.73854	0.09956
4356.80990	0.09733
4354.88125	0.09450
4352.95261	0.09220
4351.02396	0.09082
4349.09531	0.09045
4347.16667	0.09101
4345.23802	0.09241
4343.30938	0.09476
4341.38073	0.09834
4339.45209	0.10304
4337.52344	0.10797
4335.59480	0.11149
4333.66615	0.11204
4331.73751	0.10905
4329.80886	0.10319
4327.88022	0.09586
4325.95157	0.08852
4324.02292	0.08228
4322.09428	0.07770
4320.16563	0.07476
4318.23699	0.07319
4316.30834	0.07303
4314.37970	0.07455
4312.45105	0.07768
4310.52241	0.08165
4308.59376	0.08536
4306.66512	0.08804
4304.73647	0.08951
4302.80783	0.09018
4300.87918	0.09077
4298.95054	0.09192
4297.02189	0.09365
4295.09324	0.09522
4293.16460	0.09583
4291.23595	0.09551
4289.30731	0.09504
4287.37866	0.09518
4285.45002	0.09609
4283.52137	0.09733
4281.59273	0.09821
4279.66408	0.09811
4277.73544	0.09695
4275.80679	0.09546
4273.87815	0.09483
4271.94950	0.09592
4270.02085	0.09876
4268.09221	0.10262
4266.16356	0.10632
4264.23492	0.10849
4262.30627	0.10794
4260.37763	0.10439
4258.44898	0.09884
4256.52034	0.09316
4254.59169	0.08934
4252.66305	0.08867
4250.73440	0.09106
4248.80576	0.09519
4246.87711	0.09933
4244.94846	0.10227
4243.01982	0.10361
4241.09117	0.10352
4239.16253	0.10247
4237.23388	0.10078
4235.30524	0.09836
4233.37659	0.09496
4231.44795	0.09079
4229.51930	0.08659
4227.59066	0.08332
4225.66201	0.08174
4223.73337	0.08207
4221.80472	0.08397
4219.87607	0.08661
4217.94743	0.08911
4216.01878	0.09072
4214.09014	0.09111
4212.16149	0.09049
4210.23285	0.08945
4208.30420	0.08845
4206.37556	0.08770
4204.44691	0.08744
4202.51827	0.08793
4200.58962	0.08907
4198.66098	0.09043
4196.73233	0.09163
4194.80368	0.09255
4192.87504	0.09322
4190.94639	0.09394
4189.01775	0.09539
4187.08910	0.09808
4185.16046	0.10173
4183.23181	0.10537
4181.30317	0.10798
4179.37452	0.10881
4177.44588	0.10750
4175.51723	0.10459
4173.58859	0.10152
4171.65994	0.09956
4169.73130	0.09894
4167.80265	0.09925
4165.87400	0.09997
4163.94536	0.10033
4162.01671	0.09941
4160.08807	0.09723
4158.15942	0.09488
4156.23078	0.09343
4154.30213	0.09318
4152.37349	0.09404
4150.44484	0.09569
4148.51620	0.09728
4146.58755	0.09757
4144.65891	0.09590
4142.73026	0.09264
4140.80161	0.08879
4138.87297	0.08555
4136.94432	0.08397
4135.01568	0.08461
4133.08703	0.08718
4131.15839	0.09073
4129.22974	0.09420
4127.30110	0.09690
4125.37245	0.09842
4123.44381	0.09850
4121.51516	0.09717
4119.58652	0.09466
4117.65787	0.09137
4115.72922	0.08797
4113.80058	0.08543
4111.87193	0.08465
4109.94329	0.08579
4108.01464	0.08829
4106.08600	0.09131
4104.15735	0.09404
4102.22871	0.09577
4100.30006	0.09613
4098.37142	0.09533
4096.44277	0.09398
4094.51413	0.09277
4092.58548	0.09221
4090.65683	0.09267
4088.72819	0.09422
4086.79954	0.09663
4084.87090	0.09932
4082.94225	0.10146
4081.01361	0.10217
4079.08496	0.10094
4077.15632	0.09792
4075.22767	0.09381
4073.29903	0.08969
4071.37038	0.08689
4069.44174	0.08640
4067.51309	0.08809
4065.58444	0.09082
4063.65580	0.09329
4061.72715	0.09466
4059.79851	0.09463
4057.86986	0.09356
4055.94122	0.09247
4054.01257	0.09230
4052.08393	0.09307
4050.15528	0.09408
4048.22664	0.09471
4046.29799	0.09495
4044.36935	0.09522
4042.44070	0.09610
4040.51206	0.09796
4038.58341	0.10035
4036.65476	0.10184
4034.72612	0.10098
4032.79747	0.09759
4030.86883	0.09303
4028.94018	0.08920
4027.01154	0.08758
4025.08289	0.08861
4023.15425	0.09143
4021.22560	0.09425
4019.29696	0.09579
4017.36831	0.09612
4015.43967	0.09621
4013.51102	0.09679
4011.58237	0.09787
4009.65373	0.09893
4007.72508	0.09917
4005.79644	0.09805
4003.86779	0.09579
4001.93915	0.09333
4000.01050	0.09168
3998.08186	0.09132
3996.15321	0.09213
3994.22457	0.09368
3992.29592	0.09543
3990.36728	0.09692
3988.43863	0.09789
3986.50998	0.09822
3984.58134	0.09792
3982.65269	0.09711
3980.72405	0.09604
3978.79540	0.09500
3976.86676	0.09425
3974.93811	0.09386
3973.00947	0.09365
3971.08082	0.09324
3969.15218	0.09222
3967.22353	0.09041
3965.29489	0.08803
3963.36624	0.08568
3961.43759	0.08411
3959.50895	0.08387
3957.58030	0.08503
3955.65166	0.08704
3953.72301	0.08897
3951.79437	0.08991
3949.86572	0.08941
3947.93708	0.08763
3946.00843	0.08508
3944.07979	0.08238
3942.15114	0.07990
3940.22250	0.07771
3938.29385	0.07573
3936.36521	0.07382
3934.43656	0.07199
3932.50791	0.07032
3930.57927	0.06897
3928.65062	0.06814
3926.72198	0.06810
3924.79333	0.06920
3922.86469	0.07170
3920.93604	0.07552
3919.00740	0.08017
3917.07875	0.08473
3915.15011	0.08811
3913.22146	0.08928
3911.29282	0.08774
3909.36417	0.08378
3907.43552	0.07850
3905.50688	0.07353
3903.57823	0.07048
3901.64959	0.07036
3899.72094	0.07309
3897.79230	0.07737
3895.86365	0.08118
3893.93501	0.08272
3892.00636	0.08118
3890.07772	0.07704
3888.14907	0.07188
3886.22043	0.06761
3884.29178	0.06565
3882.36313	0.06616
3880.43449	0.06813
3878.50584	0.06994
3876.57720	0.07021
3874.64855	0.06850
3872.71991	0.06547
3870.79126	0.06257
3868.86262	0.06112
3866.93397	0.06125
3865.00533	0.06164
3863.07668	0.06021
3861.14804	0.05551
3859.21939	0.04786
3857.29074	0.03951
3855.36210	0.03380
3853.43345	0.03345
3851.50481	0.03874
3849.57616	0.04715
3847.64752	0.05471
3845.71887	0.05821
3843.79023	0.05674
3841.86158	0.05184
3839.93294	0.04662
3838.00429	0.04404
3836.07565	0.04543
3834.14700	0.04984
3832.21835	0.05490
3830.28971	0.05811
3828.36106	0.05793
3826.43242	0.05432
3824.50377	0.04880
3822.57513	0.04390
3820.64648	0.04205
3818.71784	0.04456
3816.78919	0.05103
3814.86055	0.05952
3812.93190	0.06717
3811.00326	0.07132
3809.07461	0.07070
3807.14597	0.06592
3805.21732	0.05908
3803.28867	0.05293
3801.36003	0.04980
3799.43138	0.05085
3797.50274	0.05578
3795.57409	0.06318
3793.64545	0.07126
3791.71680	0.07835
3789.78816	0.08318
3787.85951	0.08502
3785.93087	0.08368
3784.00222	0.07947
3782.07358	0.07314
3780.14493	0.06578
3778.21628	0.05869
3776.28764	0.05309
3774.35899	0.04991
3772.43035	0.04971
3770.50170	0.05253
3768.57306	0.05785
3766.64441	0.06451
3764.71577	0.07075
3762.78712	0.07460
3760.85848	0.07444
3758.92983	0.06953
3757.00119	0.06025
3755.07254	0.04800
3753.14389	0.03498
3751.21525	0.02365
3749.28660	0.01603
3747.35796	0.01310
3745.42931	0.01476
3743.50067	0.01990
3741.57202	0.02676
3739.64338	0.03369
3737.71473	0.03982
3735.78609	0.04530
3733.85744	0.05073
3731.92880	0.05650
3730.00015	0.06246
3728.07150	0.06799
3726.14286	0.07230
3724.21421	0.07480
3722.28557	0.07542
3720.35692	0.07465
3718.42828	0.07328
3716.49963	0.07212
3714.57099	0.07188
3712.64234	0.07315
3710.71370	0.07631
3708.78505	0.08123
3706.85641	0.08732
3704.92776	0.09374
3702.99911	0.09942
3701.07047	0.10318
3699.14182	0.10398
3697.21318	0.10141
3695.28453	0.09613
3693.35589	0.08998
3691.42724	0.08543
3689.49860	0.08463
3687.56995	0.08816
3685.64131	0.09448
3683.71266	0.10056
3681.78402	0.10347
3679.85537	0.10193
3677.92673	0.09705
3675.99808	0.09189
3674.06943	0.09010
3672.14079	0.09442
3670.21214	0.10572
3668.28350	0.12302
3666.35485	0.14409
3664.42621	0.16608
3662.49756	0.18597
3660.56892	0.20111
3658.64027	0.20980
3656.71163	0.21196
3654.78298	0.20941
3652.85434	0.20556
3650.92569	0.20447
3648.99704	0.20941
3647.06840	0.22159
3645.13975	0.23967
3643.21111	0.26046
3641.28246	0.28032
3639.35382	0.29649
3637.42517	0.30803
3635.49653	0.31601
3633.56788	0.32279
3631.63924	0.33088
3629.71059	0.34204
3627.78195	0.35662
3625.85330	0.37366
3623.92465	0.39153
3621.99601	0.40886
3620.06736	0.42494
3618.13872	0.43975
3616.21007	0.45364
3614.28143	0.46710
3612.35278	0.48067
3610.42414	0.49488
3608.49549	0.51034
3606.56685	0.52756
3604.63820	0.54655
3602.70956	0.56659
3600.78091	0.58637
3598.85226	0.60460
3596.92362	0.62067
3594.99497	0.63491
3593.06633	0.64840
3591.13768	0.66246
3589.20904	0.67811
3587.28039	0.69572
3585.35175	0.71495
3583.42310	0.73490
3581.49446	0.75446
3579.56581	0.77257
3577.63717	0.78851
3575.70852	0.80221
3573.77988	0.81435
3571.85123	0.82609
3569.92258	0.83868
3567.99394	0.85297
3566.06529	0.86915
3564.13665	0.88680
3562.20800	0.90507
3560.27936	0.92309
3558.35071	0.94031
3556.42207	0.95665
3554.49342	0.97241
3552.56478	0.98799
3550.63613	1.00383
3548.70749	1.02017
3546.77884	1.03701
3544.85019	1.05413
3542.92155	1.07125
3540.99290	1.08817
3539.06426	1.10476
3537.13561	1.12086
3535.20697	1.13630
3533.27832	1.15093
3531.34968	1.16466
3529.42103	1.17771
3527.49239	1.19072
3525.56374	1.20455
3523.63510	1.21994
3521.70645	1.23704
3519.77780	1.25533
3517.84916	1.27365
3515.92051	1.29070
3513.99187	1.30567
3512.06322	1.31875
3510.13458	1.33098
3508.20593	1.34369
3506.27729	1.35783
3504.34864	1.37361
3502.42000	1.39038
3500.49135	1.40702
3498.56271	1.42255
3496.63406	1.43667
3494.70541	1.44971
3492.77677	1.46229
3490.84812	1.47483
3488.91948	1.48739
3486.99083	1.49975
3485.06219	1.51163
3483.13354	1.52303
3481.20490	1.53427
3479.27625	1.54586
3477.34761	1.55819
3475.41896	1.57136
3473.49032	1.58517
3471.56167	1.59929
3469.63302	1.61343
3467.70438	1.62735
3465.77573	1.64085
3463.84709	1.65373
3461.91844	1.66577
3459.98980	1.67684
3458.06115	1.68698
3456.13251	1.69646
3454.20386	1.70571
3452.27522	1.71511
3450.34657	1.72483
3448.41793	1.73487
3446.48928	1.74503
3444.56064	1.75511
3442.63199	1.76503
3440.70334	1.77485
3438.77470	1.78468
3436.84605	1.79454
3434.91741	1.80438
3432.98876	1.81399
3431.06012	1.82316
3429.13147	1.83176
3427.20283	1.83984
3425.27418	1.84744
3423.34554	1.85448
3421.41689	1.86073
3419.48825	1.86595
3417.55960	1.87009
3415.63095	1.87339
3413.70231	1.87643
3411.77366	1.87994
3409.84502	1.88454
3407.91637	1.89045
3405.98773	1.89743
3404.05908	1.90490
3402.13044	1.91209
3400.20179	1.91831
3398.27315	1.92318
3396.34450	1.92682
3394.41586	1.92976
3392.48721	1.93264
3390.55856	1.93589
3388.62992	1.93956
3386.70127	1.94331
3384.77263	1.94656
3382.84398	1.94885
3380.91534	1.95000
3378.98669	1.95022
3377.05805	1.94994
3375.12940	1.94963
3373.20076	1.94972
3371.27211	1.95053
3369.34347	1.95212
3367.41482	1.95424
3365.48617	1.95629
3363.55753	1.95759
3361.62888	1.95757
3359.70024	1.95605
3357.77159	1.95343
3355.84295	1.95051
3353.91430	1.94817
3351.98566	1.94696
3350.05701	1.94698
3348.12837	1.94787
3346.19972	1.94900
3344.27108	1.94964
3342.34243	1.94925
3340.41378	1.94752
3338.48514	1.94441
3336.55649	1.94023
3334.62785	1.93573
3332.69920	1.93180
3330.77056	1.92917
3328.84191	1.92812
3326.91327	1.92832
3324.98462	1.92897
3323.05598	1.92916
3321.12733	1.92831
3319.19869	1.92633
3317.27004	1.92360
3315.34140	1.92063
3313.41275	1.91792
3311.48410	1.91585
3309.55546	1.91462
3307.62681	1.91430
3305.69817	1.91473
3303.76952	1.91548
3301.84088	1.91588
3299.91223	1.91539
3297.98359	1.91379
3296.05494	1.91135
3294.12630	1.90867
3292.19765	1.90634
3290.26901	1.90451
3288.34036	1.90277
3286.41171	1.90055
3284.48307	1.89748
3282.55442	1.89367
3280.62578	1.88962
3278.69713	1.88599
3276.76849	1.88324
3274.83984	1.88145
3272.91120	1.88025
3270.98255	1.87909
3269.05391	1.87747
3267.12526	1.87500
3265.19662	1.87146
3263.26797	1.86686
3261.33932	1.86149
3259.41068	1.85580
3257.48203	1.85027
3255.55339	1.84524
3253.62474	1.84081
3251.69610	1.83682
3249.76745	1.83291
3247.83881	1.82871
3245.91016	1.82401
3243.98152	1.81881
3242.05287	1.81328
3240.12423	1.80771
3238.19558	1.80244
3236.26693	1.79767
3234.33829	1.79335
3232.40964	1.78925
3230.48100	1.78508
3228.55235	1.78060
3226.62371	1.77572
3224.69506	1.77044
3222.76642	1.76477
3220.83777	1.75865
3218.90913	1.75199
3216.98048	1.74474
3215.05184	1.73702
3213.12319	1.72916
3211.19455	1.72163
3209.26590	1.71485
3207.33725	1.70894
3205.40861	1.70366
3203.47996	1.69853
3201.55132	1.69291
3199.62267	1.68629
3197.69403	1.67845
3195.76538	1.66970
3193.83674	1.66067
3191.90809	1.65202
3189.97945	1.64419
3188.05080	1.63721
3186.12216	1.63070
3184.19351	1.62411
3182.26486	1.61700
3180.33622	1.60934
3178.40757	1.60149
3176.47893	1.59392
3174.55028	1.58701
3172.62164	1.58089
3170.69299	1.57539
3168.76435	1.57012
3166.83570	1.56463
3164.90706	1.55858
3162.97841	1.55175
3161.04977	1.54406
3159.12112	1.53557
3157.19247	1.52649
3155.26383	1.51708
3153.33518	1.50760
3151.40654	1.49830
3149.47789	1.48933
3147.54925	1.48076
3145.62060	1.47255
3143.69196	1.46461
3141.76331	1.45682
3139.83467	1.44901
3137.90602	1.44102
3135.97738	1.43278
3134.04873	1.42442
3132.12008	1.41615
3130.19144	1.40819
3128.26279	1.40070
3126.33415	1.39369
3124.40550	1.38700
3122.47686	1.38033
3120.54821	1.37346
3118.61957	1.36631
3116.69092	1.35896
3114.76228	1.35158
3112.83363	1.34429
3110.90499	1.33708
3108.97634	1.32991
3107.04769	1.32280
3105.11905	1.31585
3103.19040	1.30931
3101.26176	1.30343
3099.33311	1.29825
3097.40447	1.29342
3095.47582	1.28832
3093.54718	1.28236
3091.61853	1.27531
3089.68989	1.26734
3087.76124	1.25898
3085.83260	1.25079
3083.90395	1.24308
3081.97531	1.23579
3080.04666	1.22862
3078.11801	1.22130
3076.18937	1.21382
3074.26072	1.20641
3072.33208	1.19942
3070.40343	1.19300
3068.47479	1.18703
3066.54614	1.18114
3064.61750	1.17496
3062.68885	1.16830
3060.76021	1.16122
3058.83156	1.15405
3056.90292	1.14713
3054.97427	1.14058
3053.04562	1.13424
3051.11698	1.12780
3049.18833	1.12099
3047.25969	1.11369
3045.33104	1.10607
3043.40240	1.09845
3041.47375	1.09116
3039.54511	1.08432
3037.61646	1.07786
3035.68782	1.07162
3033.75917	1.06548
3031.83053	1.05941
3029.90188	1.05338
3027.97323	1.04733
3026.04459	1.04108
3024.11594	1.03445
3022.18730	1.02737
3020.25865	1.02002
3018.33001	1.01278
3016.40136	1.00604
3014.47272	1.00009
3012.54407	0.99490
3010.61543	0.99013
3008.68678	0.98537
3006.75814	0.98032
3004.82949	0.97497
3002.90084	0.96950
3000.97220	0.96428
2999.04355	0.95963
2997.11491	0.95564
2995.18626	0.95208
2993.25762	0.94872
2991.32897	0.94555
2989.40033	0.94285
2987.47168	0.94109
2985.54304	0.94070
2983.61439	0.94175
2981.68575	0.94374
2979.75710	0.94591
2977.82845	0.94773
2975.89981	0.94910
2973.97116	0.95029
2972.04252	0.95170
2970.11387	0.95342
2968.18523	0.95516
2966.25658	0.95635
2964.32794	0.95660
2962.39929	0.95591
2960.47065	0.95452
2958.54200	0.95272
2956.61336	0.95065
2954.68471	0.94843
2952.75607	0.94622
2950.82742	0.94436
2948.89877	0.94331
2946.97013	0.94354
2945.04148	0.94520
2943.11284	0.94797
2941.18419	0.95123
2939.25555	0.95425
2937.32690	0.95642
2935.39826	0.95733
2933.46961	0.95699
2931.54097	0.95589
2929.61232	0.95473
2927.68368	0.95405
2925.75503	0.95391
2923.82638	0.95369
2921.89774	0.95220
2919.96909	0.94804
2918.04045	0.94032
2916.11180	0.92903
2914.18316	0.91500
2912.25451	0.89947
2910.32587	0.88374
2908.39722	0.86883
2906.46858	0.85544
2904.53993	0.84403
2902.61129	0.83476
2900.68264	0.82745
2898.75399	0.82166
2896.82535	0.81694
2894.89670	0.81286
2892.96806	0.80909
2891.03941	0.80554
2889.11077	0.80229
2887.18212	0.79918
2885.25348	0.79568
2883.32483	0.79137
2881.39619	0.78638
2879.46754	0.78121
2877.53890	0.77628
2875.61025	0.77184
2873.68160	0.76799
2871.75296	0.76450
2869.82431	0.76099
2867.89567	0.75735
2865.96702	0.75392
2864.03838	0.75125
2862.10973	0.74975
2860.18109	0.74948
2858.25244	0.75002
2856.32380	0.75039
2854.39515	0.74939
2852.46651	0.74597
2850.53786	0.73947
2848.60922	0.72997
2846.68057	0.71838
2844.75192	0.70614
2842.82328	0.69454
2840.89463	0.68424
2838.96599	0.67536
2837.03734	0.66758
2835.10870	0.66031
2833.18005	0.65316
2831.25141	0.64619
2829.32276	0.63986
2827.39412	0.63447
2825.46547	0.62990
2823.53683	0.62565
2821.60818	0.62107
2819.67953	0.61568
2817.75089	0.60943
2815.82224	0.60285
2813.89360	0.59682
2811.96495	0.59213
2810.03631	0.58917
2808.10766	0.58782
2806.17902	0.58746
2804.25037	0.58724
2802.32173	0.58628
2800.39308	0.58402
2798.46444	0.58033
2796.53579	0.57561
2794.60714	0.57062
2792.67850	0.56621
2790.74985	0.56286
2788.82121	0.56046
2786.89256	0.55837
2784.96392	0.55583
2783.03527	0.55242
2781.10663	0.54826
2779.17798	0.54391
2777.24934	0.53994
2775.32069	0.53672
2773.39205	0.53419
2771.46340	0.53200
2769.53475	0.52974
2767.60611	0.52723
2765.67746	0.52454
2763.74882	0.52178
2761.82017	0.51912
2759.89153	0.51674
2757.96288	0.51467
2756.03424	0.51273
2754.10559	0.51066
2752.17695	0.50833
2750.24830	0.50564
2748.31966	0.50264
2746.39101	0.49959
2744.46236	0.49689
2742.53372	0.49469
2740.60507	0.49286
2738.67643	0.49123
2736.74778	0.48963
2734.81914	0.48779
2732.89049	0.48549
2730.96185	0.48271
2729.03320	0.47960
2727.10456	0.47632
2725.17591	0.47303
2723.24727	0.46991
2721.31862	0.46704
2719.38998	0.46425
2717.46133	0.46126
2715.53268	0.45798
2713.60404	0.45440
2711.67539	0.45062
2709.74675	0.44685
2707.81810	0.44339
2705.88946	0.44047
2703.96081	0.43811
2702.03217	0.43629
2700.10352	0.43498
2698.17488	0.43400
2696.24623	0.43297
2694.31759	0.43160
2692.38894	0.42982
2690.46029	0.42775
2688.53165	0.42545
2686.60300	0.42308
2684.67436	0.42081
2682.74571	0.41861
2680.81707	0.41623
2678.88842	0.41356
2676.95978	0.41074
2675.03113	0.40797
2673.10249	0.40524
2671.17384	0.40241
2669.24520	0.39930
2667.31655	0.39574
2665.38790	0.39177
2663.45926	0.38794
2661.53061	0.38498
2659.60197	0.38330
2657.67332	0.38269
2655.74468	0.38242
2653.81603	0.38157
2651.88739	0.37943
2649.95874	0.37600
2648.03010	0.37195
2646.10145	0.36816
2644.17281	0.36524
2642.24416	0.36332
2640.31551	0.36204
2638.38687	0.36073
2636.45822	0.35870
2634.52958	0.35564
2632.60093	0.35177
2630.67229	0.34767
2628.74364	0.34398
2626.81500	0.34108
2624.88635	0.33883
2622.95771	0.33656
2621.02906	0.33351
2619.10042	0.32936
2617.17177	0.32452
2615.24312	0.31992
2613.31448	0.31664
2611.38583	0.31541
2609.45719	0.31623
2607.52854	0.31855
2605.59990	0.32162
2603.67125	0.32473
2601.74261	0.32716
2599.81396	0.32822
2597.88532	0.32769
2595.95667	0.32586
2594.02803	0.32323
2592.09938	0.32045
2590.17074	0.31826
2588.24209	0.31706
2586.31344	0.31637
2584.38480	0.31513
2582.45615	0.31261
2580.52751	0.30883
2578.59886	0.30431
2576.67022	0.29990
2574.74157	0.29681
2572.81293	0.29613
2570.88428	0.29789
2568.95564	0.30083
2567.02699	0.30326
2565.09835	0.30400
2563.16970	0.30261
2561.24105	0.29948
2559.31241	0.29601
2557.38376	0.29405
2555.45512	0.29457
2553.52647	0.29686
2551.59783	0.29939
2549.66918	0.30105
2547.74054	0.30144
2545.81189	0.30081
2543.88325	0.29991
2541.95460	0.29941
2540.02596	0.29910
2538.09731	0.29807
2536.16866	0.29570
2534.24002	0.29244
2532.31137	0.28955
2530.38273	0.28851
2528.45408	0.29016
2526.52544	0.29404
2524.59679	0.29853
2522.66815	0.30177
2520.73950	0.30247
2518.81086	0.30037
2516.88221	0.29644
2514.95357	0.29249
2513.02492	0.29026
2511.09627	0.29051
2509.16763	0.29292
2507.23898	0.29647
2505.31034	0.29992
2503.38169	0.30234
2501.45305	0.30328
2499.52440	0.30280
2497.59576	0.30133
2495.66711	0.29928
2493.73847	0.29685
2491.80982	0.29435
2489.88118	0.29253
2487.95253	0.29217
2486.02389	0.29330
2484.09524	0.29523
2482.16659	0.29725
2480.23795	0.29882
2478.30930	0.29951
2476.38066	0.29938
2474.45201	0.29906
2472.52337	0.29908
2470.59472	0.29927
2468.66608	0.29916
2466.73743	0.29843
2464.80879	0.29703
2462.88014	0.29516
2460.95150	0.29332
2459.02285	0.29225
2457.09420	0.29258
2455.16556	0.29455
2453.23691	0.29797
2451.30827	0.30241
2449.37962	0.30726
2447.45098	0.31155
2445.52233	0.31402
2443.59369	0.31386
2441.66504	0.31114
2439.73640	0.30685
2437.80775	0.30247
2435.87911	0.29941
2433.95046	0.29821
2432.02181	0.29827
2430.09317	0.29836
2428.16452	0.29756
2426.23588	0.29585
2424.30723	0.29401
2422.37859	0.29305
2420.44994	0.29346
2418.52130	0.29490
2416.59265	0.29647
2414.66401	0.29732
2412.73536	0.29705
2410.80672	0.29574
2408.87807	0.29382
2406.94942	0.29198
2405.02078	0.29083
2403.09213	0.29053
2401.16349	0.29063
2399.23484	0.29036
2397.30620	0.28914
2395.37755	0.28689
2393.44891	0.28417
2391.52026	0.28218
2389.59162	0.28225
2387.66297	0.28505
2385.73433	0.29029
2383.80568	0.29690
2381.87703	0.30345
2379.94839	0.30850
2378.01974	0.31081
2376.09110	0.30954
2374.16245	0.30437
2372.23381	0.29548
2370.30516	0.28363
2368.37652	0.27019
2366.44787	0.25703
2364.51923	0.24613
2362.59058	0.23914
2360.66194	0.23701
2358.73329	0.23990
2356.80465	0.24700
2354.87600	0.25666
2352.94735	0.26691
2351.01871	0.27602
2349.09006	0.28295
2347.16142	0.28728
2345.23277	0.28898
2343.30413	0.28829
2341.37548	0.28556
2339.44684	0.28125
2337.51819	0.27624
2335.58955	0.27184
2333.66090	0.26949
2331.73226	0.26997
2329.80361	0.27295
2327.87496	0.27702
2325.94632	0.28026
2324.01767	0.28098
2322.08903	0.27849
2320.16038	0.27333
2318.23174	0.26688
2316.30309	0.26075
2314.37445	0.25627
2312.44580	0.25417
2310.51716	0.25439
2308.58851	0.25611
2306.65987	0.25809
2304.73122	0.25914
2302.80257	0.25848
2300.87393	0.25612
2298.94528	0.25275
2297.01664	0.24949
2295.08799	0.24727
2293.15935	0.24640
2291.23070	0.24647
2289.30206	0.24672
2287.37341	0.24643
2285.44477	0.24518
2283.51612	0.24279
2281.58748	0.23923
2279.65883	0.23470
2277.73018	0.22948
2275.80154	0.22401
2273.87289	0.21877
2271.94425	0.21421
2270.01560	0.21046
2268.08696	0.20723
2266.15831	0.20401
2264.22967	0.20049
2262.30102	0.19669
2260.37238	0.19273
2258.44373	0.18870
2256.51509	0.18499
2254.58644	0.18267
2252.65779	0.18327
2250.72915	0.18789
2248.80050	0.19658
2246.87186	0.20817
2244.94321	0.21983
2243.01457	0.22739
2241.08592	0.22789
2239.15728	0.22204
2237.22863	0.21348
2235.29999	0.20570
2233.37134	0.20035
2231.44270	0.19731
2229.51405	0.19459
2227.58541	0.18907
2225.65676	0.17908
2223.72811	0.16658
2221.79947	0.15595
2219.87082	0.15060
2217.94218	0.15128
2216.01353	0.15655
2214.08489	0.16350
2212.15624	0.16841
2210.22760	0.16826
2208.29895	0.16296
2206.37031	0.15569
2204.44166	0.15102
2202.51302	0.15251
2200.58437	0.16121
2198.65572	0.17485
2196.72708	0.18842
2194.79843	0.19644
2192.86979	0.19570
2190.94114	0.18652
2189.01250	0.17279
2187.08385	0.16082
2185.15521	0.15635
2183.22656	0.16069
2181.29792	0.16983
2179.36927	0.17715
2177.44063	0.17634
2175.51198	0.16349
2173.58333	0.14033
2171.65469	0.11525
2169.72604	0.09675
2167.79740	0.08548
2165.86875	0.07497
2163.94011	0.05932
2162.01146	0.03788
2160.08282	0.01508
2158.15417	0.00000
2156.22553	0.00226
2154.29688	0.02292
2152.36824	0.05108
2150.43959	0.07233
2148.51094	0.07964
2146.58230	0.07610
2144.65365	0.07046
2142.72501	0.07176
2140.79636	0.08452
2138.86772	0.10586
2136.93907	0.12816
2135.01043	0.14454
2133.08178	0.15238
2131.15314	0.15278
2129.22449	0.14803
2127.29585	0.13981
2125.36720	0.12925
2123.43856	0.11809
2121.50991	0.10912
2119.58126	0.10491
2117.65262	0.10658
2115.72397	0.11311
2113.79533	0.12173
2111.86668	0.12960
2109.93804	0.13526
2108.00939	0.13895
2106.08075	0.14139
2104.15210	0.14302
2102.22346	0.14406
2100.29481	0.14460
2098.36617	0.14492
2096.43752	0.14638
2094.50887	0.15070
2092.58023	0.15833
2090.65158	0.16739
2088.72294	0.17437
2086.79429	0.17603
2084.86565	0.17101
2082.93700	0.16052
2081.00836	0.14796
2079.07971	0.13736
2077.15107	0.13164
2075.22242	0.13140
2073.29378	0.13485
2071.36513	0.13890
2069.43648	0.14073
2067.50784	0.13885
2065.57919	0.13338
2063.65055	0.12549
2061.72190	0.11647
2059.79326	0.10718
2057.86461	0.09787
2055.93597	0.08860
2054.00732	0.07973
2052.07868	0.07225
2050.15003	0.06740
2048.22139	0.06583
2046.29274	0.06710
2044.36409	0.07004
2042.43545	0.07350
2040.50680	0.07665
2038.57816	0.07894
2036.64951	0.08011
2034.72087	0.08022
2032.79222	0.07986
2030.86358	0.08018
2028.93493	0.08239
2027.00629	0.08778
2025.07764	0.09569
2023.14900	0.10367
2021.22035	0.10834
2019.29170	0.10740
2017.36306	0.10147
2015.43441	0.09469
2013.50577	0.09280
2011.57712	0.09987
2009.64848	0.11582
2007.71983	0.13614
2005.79119	0.15380
2003.86254	0.16272
2001.93390	0.16113
2000.00525	0.15237
1998.07661	0.14260
1996.14796	0.13707
1994.21932	0.13762
1992.29067	0.14234
1990.36202	0.14713
1988.43338	0.14827
1986.50473	0.14454
1984.57609	0.13734
1982.64744	0.12962
1980.71880	0.12436
1978.79015	0.12363
1976.86151	0.12801
1974.93286	0.13667
1973.00422	0.14770
1971.07557	0.15844
1969.14693	0.16582
1967.21828	0.16737
1965.28963	0.16228
1963.36099	0.15178
1961.43234	0.13864
1959.50370	0.12609
1957.57505	0.11675
1955.64641	0.11200
1953.71776	0.11168
1951.78912	0.11451
1949.86047	0.11888
1947.93183	0.12356
1946.00318	0.12761
1944.07454	0.13020
1942.14589	0.13078
1940.21724	0.12966
1938.28860	0.12799
1936.35995	0.12731
1934.43131	0.12896
1932.50266	0.13351
1930.57402	0.14024
1928.64537	0.14728
1926.71673	0.15252
1924.78808	0.15471
1922.85944	0.15414
1920.93079	0.15229
1919.00215	0.15094
1917.07350	0.15112
1915.14485	0.15253
1913.21621	0.15386
1911.28756	0.15356
1909.35892	0.15092
1907.43027	0.14660
1905.50163	0.14232
1903.57298	0.13990
1901.64434	0.14010
1899.71569	0.14231
1897.78705	0.14502
1895.85840	0.14661
1893.92976	0.14620
1892.00111	0.14406
1890.07246	0.14150
1888.14382	0.14015
1886.21517	0.14112
1884.28653	0.14458
1882.35788	0.14958
1880.42924	0.15439
1878.50059	0.15719
1876.57195	0.15695
1874.64330	0.15389
1872.71466	0.14926
1870.78601	0.14463
1868.85737	0.14114
1866.92872	0.13903
1865.00008	0.13773
1863.07143	0.13647
1861.14278	0.13507
1859.21414	0.13398
1857.28549	0.13395
1855.35685	0.13543
1853.42820	0.13828
1851.49956	0.14179
1849.57091	0.14498
1847.64227	0.14714
1845.71362	0.14809
1843.78498	0.14815
1841.85633	0.14772
1839.92769	0.14709
1837.99904	0.14637
1836.07039	0.14563
1834.14175	0.14499
1832.21310	0.14475
1830.28446	0.14533
1828.35581	0.14711
1826.42717	0.15008
1824.49852	0.15379
1822.56988	0.15746
1820.64123	0.16034
1818.71259	0.16204
1816.78394	0.16268
1814.85530	0.16276
1812.92665	0.16288
1810.99800	0.16335
1809.06936	0.16405
1807.14071	0.16461
1805.21207	0.16462
1803.28342	0.16390
1801.35478	0.16270
1799.42613	0.16158
1797.49749	0.16116
1795.56884	0.16188
1793.64020	0.16386
1791.71155	0.16689
1789.78291	0.17057
1787.85426	0.17444
1785.92561	0.17812
1783.99697	0.18133
1782.06832	0.18381
1780.13968	0.18531
1778.21103	0.18578
1776.28239	0.18555
1774.35374	0.18538
1772.42510	0.18626
1770.49645	0.18900
1768.56781	0.19381
1766.63916	0.20019
1764.71052	0.20708
1762.78187	0.21341
1760.85322	0.21850
1758.92458	0.22237
1756.99593	0.22574
1755.06729	0.22975
1753.13864	0.23547
1751.21000	0.24355
1749.28135	0.25387
1747.35271	0.26530
1745.42406	0.27601
1743.49542	0.28420
1741.56677	0.28902
1739.63813	0.29108
1737.70948	0.29242
1735.78084	0.29574
1733.85219	0.30333
1731.92354	0.31582
1729.99490	0.33169
1728.06625	0.34792
1726.13761	0.36153
1724.20896	0.37090
1722.28032	0.37644
1720.35167	0.38040
1718.42303	0.38579
1716.49438	0.39487
1714.56574	0.40798
1712.63709	0.42339
1710.70845	0.43832
1708.77980	0.45038
1706.85115	0.45868
1704.92251	0.46445
1702.99386	0.47071
1701.06522	0.48108
1699.13657	0.49816
1697.20793	0.52221
1695.27928	0.55100
1693.35064	0.58103
1691.42199	0.60923
1689.49335	0.63438
1687.56470	0.65746
1685.63606	0.68091
1683.70741	0.70705
1681.77876	0.73659
1679.85012	0.76836
1677.92147	0.80038
1675.99283	0.83108
1674.06418	0.86003
1672.13554	0.88788
1670.20689	0.91574
1668.27825	0.94424
1666.34960	0.97263
1664.42096	0.99871
1662.49231	1.01995
1660.56367	1.03473
1658.63502	1.04300
1656.70637	1.04660
1654.77773	1.04881
1652.84908	1.05319
1650.92044	1.06176
1648.99179	1.07404
1647.06315	1.08755
1645.13450	1.09916
1643.20586	1.10644
1641.27721	1.10864
1639.34857	1.10689
1637.41992	1.10349
1635.49128	1.10053
1633.56263	1.09890
1631.63399	1.09819
1629.70534	1.09731
1627.77669	1.09523
1625.84805	1.09155
1623.91940	1.08676
1621.99076	1.08202
1620.06211	1.07865
1618.13347	1.07766
1616.20482	1.07938
1614.27618	1.08336
1612.34753	1.08843
1610.41889	1.09318
1608.49024	1.09635
1606.56160	1.09713
1604.63295	1.09518
1602.70430	1.09066
1600.77566	1.08397
1598.84701	1.07548
1596.91837	1.06544
1594.98972	1.05402
1593.06108	1.04141
1591.13243	1.02769
1589.20379	1.01272
1587.27514	0.99615
1585.34650	0.97765
1583.41785	0.95724
1581.48921	0.93544
1579.56056	0.91333
1577.63191	0.89240
1575.70327	0.87410
1573.77462	0.85892
1571.84598	0.84578
1569.91733	0.83227
1567.98869	0.81562
1566.06004	0.79401
1564.13140	0.76780
1562.20275	0.73991
1560.27411	0.71493
1558.34546	0.69709
1556.41682	0.68794
1554.48817	0.68545
1552.55952	0.68477
1550.63088	0.68035
1548.70223	0.66840
1546.77359	0.64853
1544.84494	0.62374
1542.91630	0.59906
1540.98765	0.57933
1539.05901	0.56728
1537.13036	0.56269
1535.20172	0.56290
1533.27307	0.56426
1531.34443	0.56365
1529.41578	0.55963
1527.48713	0.55275
1525.55849	0.54516
1523.62984	0.53929
1521.70120	0.53645
1519.77255	0.53586
1517.84391	0.53478
1515.91526	0.52985
1513.98662	0.51885
1512.05797	0.50198
1510.12933	0.48190
1508.20068	0.46255
1506.27204	0.44735
1504.34339	0.43757
1502.41475	0.43190
1500.48610	0.42764
1498.55745	0.42243
1496.62881	0.41534
1494.70016	0.40697
1492.77152	0.39890
1490.84287	0.39282
1488.91423	0.38967
1486.98558	0.38922
1485.05694	0.39036
1483.12829	0.39186
1481.19965	0.39314
1479.27100	0.39465
1477.34236	0.39778
1475.41371	0.40432
1473.48506	0.41555
1471.55642	0.43119
1469.62777	0.44901
1467.69913	0.46552
1465.77048	0.47754
1463.84184	0.48355
1461.91319	0.48420
1459.98455	0.48194
1458.05590	0.47990
1456.12726	0.48039
1454.19861	0.48386
1452.26997	0.48898
1450.34132	0.49364
1448.41267	0.49601
1446.48403	0.49531
1444.55538	0.49199
1442.62674	0.48755
1440.69809	0.48403
1438.76945	0.48337
1436.84080	0.48695
1434.91216	0.49522
1432.98351	0.50747
1431.05487	0.52198
1429.12622	0.53666
1427.19758	0.54981
1425.26893	0.56085
1423.34028	0.57045
1421.41164	0.58017
1419.48299	0.59149
1417.55435	0.60500
1415.62570	0.62001
1413.69706	0.63489
1411.76841	0.64787
1409.83977	0.65770
1407.91112	0.66386
1405.98248	0.66659
1404.05383	0.66655
1402.12519	0.66448
1400.19654	0.66105
1398.26789	0.65682
1396.33925	0.65234
1394.41060	0.64806
1392.48196	0.64428
1390.55331	0.64105
1388.62467	0.63830
1386.69602	0.63582
1384.76738	0.63330
1382.83873	0.63033
1380.91009	0.62659
1378.98144	0.62192
1377.05280	0.61642
1375.12415	0.61041
1373.19551	0.60432
1371.26686	0.59846
1369.33821	0.59293
1367.40957	0.58768
1365.48092	0.58267
1363.55228	0.57804
1361.62363	0.57402
1359.69499	0.57081
1357.76634	0.56842
1355.83770	0.56663
1353.90905	0.56500
1351.98041	0.56305
1350.05176	0.56036
1348.12312	0.55671
1346.19447	0.55209
1344.26582	0.54665
1342.33718	0.54068
1340.40853	0.53455
1338.47989	0.52863
1336.55124	0.52316
1334.62260	0.51824
1332.69395	0.51388
1330.76531	0.51003
1328.83666	0.50662
1326.90802	0.50359
1324.97937	0.50087
1323.05073	0.49832
1321.12208	0.49579
1319.19343	0.49314
1317.26479	0.49035
1315.33614	0.48750
1313.40750	0.48481
1311.47885	0.48256
1309.55021	0.48105
1307.62156	0.48042
1305.69292	0.48067
1303.76427	0.48160
1301.83563	0.48292
1299.90698	0.48431
1297.97834	0.48561
1296.04969	0.48685
1294.12104	0.48818
1292.19240	0.48984
1290.26375	0.49198
1288.33511	0.49464
1286.40646	0.49775
1284.47782	0.50117
1282.54917	0.50481
1280.62053	0.50861
1278.69188	0.51264
1276.76324	0.51704
1274.83459	0.52202
1272.90595	0.52769
1270.97730	0.53394
1269.04866	0.54039
1267.12001	0.54641
1265.19136	0.55130
1263.26272	0.55452
1261.33407	0.55585
1259.40543	0.55545
1257.47678	0.55376
1255.54814	0.55128
1253.61949	0.54844
1251.69085	0.54544
1249.76220	0.54241
1247.83356	0.53942
1245.90491	0.53655
1243.97627	0.53396
1242.04762	0.53181
1240.11897	0.53019
1238.19033	0.52902
1236.26168	0.52807
1234.33304	0.52702
1232.40439	0.52553
1230.47575	0.52339
1228.54710	0.52057
1226.61846	0.51732
1224.68981	0.51403
1222.76117	0.51112
1220.83252	0.50886
1218.90388	0.50723
1216.97523	0.50595
1215.04658	0.50461
1213.11794	0.50297
1211.18929	0.50106
1209.26065	0.49915
1207.33200	0.49759
1205.40336	0.49661
1203.47471	0.49624
1201.54607	0.49636
1199.61742	0.49702
1197.68878	0.49857
1195.76013	0.50161
1193.83149	0.50678
1191.90284	0.51460
1189.97419	0.52534
1188.04555	0.53894
1186.11690	0.55503
1184.18826	0.57314
1182.25961	0.59269
1180.33097	0.61306
1178.40232	0.63372
1176.47368	0.65459
1174.54503	0.67608
1172.61639	0.69880
1170.68774	0.72323
1168.75910	0.74951
1166.83045	0.77733
1164.90180	0.80601
1162.97316	0.83486
1161.04451	0.86342
1159.11587	0.89152
1157.18722	0.91904
1155.25858	0.94582
1153.32993	0.97169
1151.40129	0.99679
1149.47264	1.02164
1147.54400	1.04708
1145.61535	1.07411
1143.68671	1.10354
1141.75806	1.13575
1139.82942	1.17062
1137.90077	1.20800
1135.97212	1.24795
1134.04348	1.29052
1132.11483	1.33542
1130.18619	1.38191
1128.25754	1.42877
1126.32890	1.47429
1124.40025	1.51676
1122.47161	1.55521
1120.54296	1.58959
1118.61432	1.62038
1116.68567	1.64822
1114.75703	1.67402
1112.82838	1.69877
1110.89973	1.72326
1108.97109	1.74799
1107.04244	1.77307
1105.11380	1.79822
1103.18515	1.82260
1101.25651	1.84522
1099.32786	1.86550
1097.39922	1.88360
1095.47057	1.90038
1093.54193	1.91683
1091.61328	1.93354
1089.68464	1.95028
1087.75599	1.96610
1085.82734	1.97979
1083.89870	1.99030
1081.97005	1.99708
1080.04141	2.00000
1078.11276	1.99888
1076.18412	1.99315
1074.25547	1.98198
1072.32683	1.96483
1070.39818	1.94189
1068.46954	1.91417
1066.54089	1.88328
1064.61225	1.85087
1062.68360	1.81813
1060.75495	1.78548
1058.82631	1.75281
1056.89766	1.71985
1054.96902	1.68642
1053.04037	1.65247
1051.11173	1.61799
1049.18308	1.58294
1047.25444	1.54735
1045.32579	1.51133
1043.39715	1.47510
1041.46850	1.43905
1039.53986	1.40361
1037.61121	1.36912
1035.68256	1.33564
1033.75392	1.30305
1031.82527	1.27125
1029.89663	1.24005
1027.96798	1.20922
1026.03934	1.17884
1024.11069	1.14937
1022.18205	1.12130
1020.25340	1.09500
1018.32476	1.07084
1016.39611	1.04914
1014.46747	1.03000
1012.53882	1.01367
1010.61018	1.00090
1008.68153	0.99265
1006.75288	0.98922
1004.82424	0.99008
1002.89559	0.99426
1000.96695	1.00068
999.03830	1.00832
997.10966	1.01663
995.18101	1.02554
993.25237	1.03494
991.32372	1.04382
989.39508	1.05023
987.46643	1.05183
985.53779	1.04648
983.60914	1.03299
981.68049	1.01168
979.75185	0.98441
977.82320	0.95359
975.89456	0.92110
973.96591	0.88758
972.03727	0.85256
970.10862	0.81554
968.17998	0.77706
966.25133	0.73915
964.32269	0.70470
962.39404	0.67613
960.46540	0.65419
958.53675	0.63766
956.60810	0.62426
954.67946	0.61203
952.75081	0.60010
950.82217	0.58843
948.89352	0.57738
946.96488	0.56728
945.03623	0.55809
943.10759	0.54949
941.17894	0.54158
939.25030	0.53519
937.32165	0.53103
935.39301	0.52895
933.46436	0.52807
931.53571	0.52736
929.60707	0.52597
927.67842	0.52358
925.74978	0.52061
923.82113	0.51788
921.89249	0.51568
919.96384	0.51353
918.03520	0.51066
916.10655	0.50667
914.17791	0.50179
912.24926	0.49655
910.32062	0.49149
908.39197	0.48706
906.46333	0.48363
904.53468	0.48165
902.60603	0.48158
900.67739	0.48357
898.74874	0.48717
896.82010	0.49137
894.89145	0.49531
892.96281	0.49900
891.03416	0.50356
889.10552	0.51068
887.17687	0.52149
885.24823	0.53556
883.31958	0.55073
881.39094	0.56410
879.46229	0.57365
877.53364	0.57912
875.60500	0.58182
873.67635	0.58388
871.74771	0.58743
869.81906	0.59366
867.89042	0.60204
865.96177	0.61051
864.03313	0.61663
862.10448	0.61869
860.17584	0.61618
858.24719	0.60988
856.31855	0.60182
854.38990	0.59453
852.46125	0.58958
850.53261	0.58685
848.60396	0.58509
846.67532	0.58278
844.74667	0.57871
842.81803	0.57225
840.88938	0.56370
838.96074	0.55395
837.03209	0.54373
835.10345	0.53343
833.17480	0.52360
831.24616	0.51502
829.31751	0.50833
827.38886	0.50383
825.46022	0.50137
823.53157	0.50015
821.60293	0.49870
819.67428	0.49578
817.74564	0.49114
815.81699	0.48560
813.88835	0.48049
811.95970	0.47715
810.03106	0.47643
808.10241	0.47825
806.17377	0.48171
804.24512	0.48555
802.31647	0.48868
800.38783	0.49046
798.45918	0.49083
796.53054	0.49041
794.60189	0.49025
792.67325	0.49126
790.74460	0.49371
788.81596	0.49711
786.88731	0.50048
784.95867	0.50273
783.03002	0.50304
781.10138	0.50132
779.17273	0.49812
777.24409	0.49412
775.31544	0.48980
773.38679	0.48578
771.45815	0.48304
769.52950	0.48240
767.60086	0.48401
765.67221	0.48730
763.74357	0.49118
761.81492	0.49439
759.88628	0.49603
757.95763	0.49623
756.02899	0.49610
754.10034	0.49675
752.17170	0.49846
750.24305	0.50061
748.31440	0.50229
746.38576	0.50287
744.45711	0.50244
742.52847	0.50165
740.59982	0.50129
738.67118	0.50162
736.74253	0.50236
734.81389	0.50313
732.88524	0.50387
730.95660	0.50507
729.02795	0.50749
727.09931	0.51135
725.17066	0.51615
723.24201	0.52098
721.31337	0.52507
719.38472	0.52818
717.45608	0.53056
715.52743	0.53272
713.59879	0.53499
711.67014	0.53731
709.74150	0.53941
707.81285	0.54128
705.88421	0.54326
703.95556	0.54595
702.02692	0.54989
700.09827	0.55526
698.16962	0.56170
696.24098	0.56835
694.31233	0.57406
692.38369	0.57777
690.45504	0.57880
688.52640	0.57728
686.59775	0.57421
684.66911	0.57116
682.74046	0.56965
680.81182	0.57052
678.88317	0.57365
676.95453	0.57797
675.02588	0.58206
673.09723	0.58484
671.16859	0.58615
669.23994	0.58658
667.31130	0.58706
665.38265	0.58835
663.45401	0.59081
661.52536	0.59417
659.59672	0.59785
657.66807	0.60133
655.73943	0.60446
653.81078	0.60741
651.88214	0.61050
649.95349	0.61412
648.02485	0.61837
646.09620	0.62304
644.16755	0.62760
642.23891	0.63149
640.31026	0.63432
638.38162	0.63615
636.45297	0.63806
634.52433	0.64286
632.59568	0.65463
630.66704	0.67662
628.73839	0.70832
626.80975	0.74351
624.88110	0.77055
622.95246	0.77589
621.02381	0.75078
619.09516	0.69774
617.16652	0.63108
615.23787	0.57066
613.30923	0.53321
611.38058	0.52590
609.45194	0.54411
607.52329	0.57506
605.59465	0.60605
603.66600	0.63154
601.73736	0.65321
599.80871	0.67508
597.88007	0.69922
595.95142	0.72408
594.02277	0.74502
592.09413	0.75722
590.16548	0.75913
588.23684	0.75364
586.30819	0.74581
584.37955	0.73986
582.45090	0.73785
580.52226	0.73983
578.59361	0.74481
576.66497	0.75185
574.73632	0.76076
572.80768	0.77178
570.87903	0.78490
568.95038	0.79946
567.02174	0.81437
565.09309	0.82862
563.16445	0.84178
561.23580	0.85418
559.30716	0.86683
557.37851	0.88081
555.44987	0.89674
553.52122	0.91450
551.59258	0.93327
549.66393	0.95181
547.73529	0.96895
545.80664	0.98410
543.87800	0.99764
541.94935	1.01062
540.02070	1.02387
538.09206	1.03712
536.16341	1.04861
534.23477	1.05577
532.30612	1.05621
530.37748	1.04872
528.44883	1.03373
526.52019	1.01304
524.59154	0.98889
522.66290	0.96319
520.73425	0.93755
518.80561	0.91339
516.87696	0.89174
514.94831	0.87285
513.01967	0.85604
511.09102	0.83985
509.16238	0.82242
507.23373	0.80218
505.30509	0.77875
503.37644	0.75317
501.44780	0.72737
499.51915	0.70337
497.59051	0.68275
495.66186	0.66625
493.73322	0.65363
491.80457	0.64386
489.87592	0.63560
487.94728	0.62766
486.01863	0.61927
484.08999	0.61027
482.16134	0.60086
480.23270	0.59132
478.30405	0.58186
476.37541	0.57262
474.44676	0.56397
472.51812	0.55651
470.58947	0.55077
468.66083	0.54665
466.73218	0.54307
464.80353	0.53834
462.87489	0.53086
460.94624	0.51997
459.01760	0.50660
457.08895	0.49305
455.16031	0.48180
453.23166	0.47427
451.30302	0.47030
449.37437	0.46860
447.44573	0.46749
445.51708	0.46557
443.58844	0.46215
441.65979	0.45729
439.73114	0.45155
437.80250	0.44559
435.87385	0.44004
433.94521	0.43542
432.01656	0.43177
430.08792	0.42851
428.15927	0.42458
426.23063	0.41904
424.30198	0.41176
422.37334	0.40377
420.44469	0.39683
418.51605	0.39231
416.58740	0.39016
414.65876	0.38868
412.73011	0.38539
410.80146	0.37822
408.87282	0.36645
406.94417	0.35112
405.01553	0.33445
403.08688	0.31880
401.15824	0.30565
399.22959	0.29529
397.30095	0.28718
395.37230	0.28048
393.44366	0.27455
391.51501	0.26916
389.58637	0.26432
387.65772	0.25979
385.72907	0.25481
383.80043	0.24825
381.87178	0.23923
379.94314	0.22785
378.01449	0.21574
376.08585	0.20557
374.15720	0.19984
372.22856	0.19936
370.29991	0.20279
368.37127	0.20704
366.44262	0.20818
364.51398	0.20283
362.58533	0.18948
360.65668	0.16899
358.72804	0.14431
356.79939	0.11960
354.87075	0.09956
352.94210	0.08740
351.01346	0.08462
349.08481	0.09041
347.15617	0.10197
345.22752	0.11564
343.29888	0.12800
341.37023	0.13663
339.44159	0.14033
337.51294	0.13883
335.58429	0.13246
333.65565	0.12199
331.72700	0.10872
329.79836	0.09445
327.86971	0.08142
325.94107	0.07205
324.01242	0.06838
322.08378	0.07152
320.15513	0.08119
318.22649	0.09572
316.29784	0.11206
314.36920	0.12602
312.44055	0.13327
310.51190	0.13090
308.58326	0.11866
306.65461	0.09935
304.72597	0.07811
302.79732	0.06080
300.86868	0.05175
298.94003	0.05229
297.01139	0.06085
295.08274	0.07384
293.15410	0.08669
291.22545	0.09507
289.29681	0.09625
287.36816	0.08990
285.43952	0.07830
283.51087	0.06599
281.58222	0.05864
279.65358	0.06083
277.72493	0.07364
275.79629	0.09417
273.86764	0.11730
271.93900	0.13844
270.01035	0.15540
268.08171	0.16861
266.15306	0.17981
264.22442	0.19022
262.29577	0.19932
260.36713	0.20499
258.43848	0.20511
256.50983	0.19968
254.58119	0.19167
252.65254	0.18577
250.72390	0.18612
248.79525	0.19473
246.86661	0.21116
244.93796	0.23281
243.00932	0.25612
241.08067	0.27821
239.15203	0.29754
237.22338	0.31292
235.29474	0.32244
233.36609	0.32387
231.43744	0.31674
229.50880	0.30425
227.58015	0.29331
225.65151	0.29207
223.72286	0.30615
221.79422	0.33542
219.86557	0.37318
217.93693	0.40881
216.00828	0.43273
214.07964	0.44055
212.15099	0.43447
210.22235	0.42198
208.29370	0.41287
206.36505	0.41556
204.43641	0.43424
202.50776	0.46782
200.57912	0.51039
198.65047	0.55301
196.72183	0.58663
194.79318	0.60493
192.86454	0.60593
190.93589	0.59192
189.00725	0.56850
187.07860	0.54343
185.14996	0.52507
183.22131	0.52045
181.29267	0.53326
179.36402	0.56247
177.43537	0.60229
175.50673	0.64411
173.57808	0.67999
171.64944	0.70689
169.72079	0.72903
167.79215	0.75594
165.86350	0.79658
163.93486	0.85309
162.00621	0.92503
160.07757	0.99739
158.14892	1.05740
156.22028	1.09760
154.29163	1.09760
152.36298	1.09760
150.43434	1.09760
148.50569	1.09760
