4497.60101	0.09531
4495.67236	0.09531
4493.74372	0.09531
4491.81507	0.09531
4489.88643	0.09531
4487.95778	0.10412
4486.02914	0.11581
4484.10049	0.12754
4482.17185	0.13595
4480.24320	0.13750
4478.31455	0.13117
4476.38591	0.11771
4474.45726	0.09995
4472.52862	0.08160
4470.59997	0.06610
4468.67133	0.05623
4466.74268	0.05378
4464.81404	0.05845
4462.88539	0.06717
4460.95675	0.07555
4459.02810	0.08054
4457.09946	0.08155
4455.17081	0.07965
4453.24216	0.07653
4451.31352	0.07399
4449.38487	0.07295
4447.45623	0.07274
4445.52758	0.07240
4443.59894	0.07268
4441.67029	0.07548
4439.74165	0.08181
4437.81300	0.09096
4435.88436	0.10078
4433.95571	0.10820
4432.02707	0.11051
4430.09842	0.10683
4428.16978	0.09859
4426.24113	0.08868
4424.31248	0.08014
4422.38384	0.07520
4420.45519	0.07480
4418.52655	0.07869
4416.59790	0.08574
4414.66926	0.09424
4412.74061	0.10223
4410.81197	0.10823
4408.88332	0.11162
4406.95468	0.11224
4405.02603	0.11000
4403.09739	0.10512
4401.16874	0.09851
4399.24009	0.09177
4397.31145	0.08666
4395.38280	0.08423
4393.45416	0.08417
4391.52551	0.08458
4389.59687	0.08309
4387.66822	0.07904
4385.73958	0.07464
4383.81093	0.07355
4381.88229	0.07820
4379.95364	0.08835
4378.02500	0.10128
4376.09635	0.11306
4374.16770	0.12038
4372.23906	0.12237
4370.31041	0.12045
4368.38177	0.11624
4366.45312	0.11018
4364.52448	0.10238
4362.59583	0.09392
4360.66719	0.08670
4358.73854	0.08257
4356.80990	0.08297
4354.88125	0.08845
4352.95261	0.09761
4351.02396	0.10729
4349.09531	0.11440
4347.16667	0.11707
4345.23802	0.11427
4343.30938	0.10581
4341.38073	0.09334
4339.45209	0.08044
4337.52344	0.07089
4335.59480	0.06711
4333.66615	0.06964
4331.73751	0.07707
4329.80886	0.08632
4327.88022	0.09413
4325.95157	0.09889
4324.02292	0.10098
4322.09428	0.10128
4320.16563	0.10000
4318.23699	0.09701
4316.30834	0.09253
4314.37970	0.08750
4312.45105	0.08359
4310.52241	0.08271
4308.59376	0.08568
4306.66512	0.09092
4304.73647	0.09479
4302.80783	0.09383
4300.87918	0.08703
4298.95054	0.07664
4297.02189	0.06704
4295.09324	0.06236
4293.16460	0.06458
4291.23595	0.07274
4289.30731	0.08332
4287.37866	0.09194
4285.45002	0.09568
4283.52137	0.09452
4281.59273	0.09043
4279.66408	0.08553
4277.73544	0.08149
4275.80679	0.07929
4273.87815	0.07852
4271.94950	0.07761
4270.02085	0.07547
4268.09221	0.07243
4266.16356	0.06958
4264.23492	0.06778
4262.30627	0.06761
4260.37763	0.06905
4258.44898	0.07114
4256.52034	0.07291
4254.59169	0.07438
4252.66305	0.07648
4250.73440	0.07984
4248.80576	0.08386
4246.87711	0.08685
4244.94846	0.08708
4243.01982	0.08401
4241.09117	0.07888
4239.16253	0.07435
4237.23388	0.07322
4235.30524	0.07682
4233.37659	0.08414
4231.44795	0.09227
4229.51930	0.09800
4227.59066	0.09932
4225.66201	0.09605
4223.73337	0.08991
4221.80472	0.08385
4219.87607	0.08065
4217.94743	0.08172
4216.01878	0.08654
4214.09014	0.09281
4212.16149	0.09716
4210.23285	0.09681
4208.30420	0.09128
4206.37556	0.08259
4204.44691	0.07400
4202.51827	0.06859
4200.58962	0.06837
4198.66098	0.07319
4196.73233	0.08034
4194.80368	0.08593
4192.87504	0.08718
4190.94639	0.08351
4189.01775	0.07615
4187.08910	0.06788
4185.16046	0.06240
4183.23181	0.06246
4181.30317	0.06783
4179.37452	0.07550
4177.44588	0.08165
4175.51723	0.08365
4173.58859	0.08106
4171.65994	0.07593
4169.73130	0.07167
4167.80265	0.07097
4165.87400	0.07428
4163.94536	0.07985
4162.01671	0.08524
4160.08807	0.08876
4158.15942	0.09023
4156.23078	0.09070
4154.30213	0.09133
4152.37349	0.09256
4150.44484	0.09398
4148.51620	0.09465
4146.58755	0.09377
4144.65891	0.09132
4142.73026	0.08816
4140.80161	0.08555
4138.87297	0.08424
4136.94432	0.08401
4135.01568	0.08384
4133.08703	0.08273
4131.15839	0.08068
4129.22974	0.07874
4127.30110	0.07814
4125.37245	0.07945
4123.44381	0.08221
4121.51516	0.08493
4119.58652	0.08585
4117.65787	0.08399
4115.72922	0.07979
4113.80058	0.07491
4111.87193	0.07123
4109.94329	0.06993
4108.01464	0.07087
4106.08600	0.07287
4104.15735	0.07449
4102.22871	0.07459
4100.30006	0.07290
4098.37142	0.07057
4096.44277	0.06957
4094.51413	0.07123
4092.58548	0.07529
4090.65683	0.08030
4088.72819	0.08443
4086.79954	0.08596
4084.87090	0.08418
4082.94225	0.08018
4081.01361	0.07622
4079.08496	0.07429
4077.15632	0.07505
4075.22767	0.07773
4073.29903	0.08059
4071.37038	0.08177
4069.44174	0.08047
4067.51309	0.07764
4065.58444	0.07527
4063.65580	0.07492
4061.72715	0.07649
4059.79851	0.07832
4057.86986	0.07866
4055.94122	0.07688
4054.01257	0.07366
4052.08393	0.07050
4050.15528	0.06899
4048.22664	0.06978
4046.29799	0.07224
4044.36935	0.07520
4042.44070	0.07788
4040.51206	0.08022
4038.58341	0.08234
4036.65476	0.08394
4034.72612	0.08423
4032.79747	0.08254
4030.86883	0.07890
4028.94018	0.07389
4027.01154	0.06808
4025.08289	0.06212
4023.15425	0.05714
4021.22560	0.05459
4019.29696	0.05571
4017.36831	0.06101
4015.43967	0.06983
4013.51102	0.07986
4011.58237	0.08754
4009.65373	0.08960
4007.72508	0.08515
4005.79644	0.07638
4003.86779	0.06708
4001.93915	0.06045
4000.01050	0.05801
3998.08186	0.05948
3996.15321	0.06343
3994.22457	0.06810
3992.29592	0.07244
3990.36728	0.07636
3988.43863	0.08001
3986.50998	0.08302
3984.58134	0.08464
3982.65269	0.08434
3980.72405	0.08214
3978.79540	0.07859
3976.86676	0.07465
3974.93811	0.07134
3973.00947	0.06947
3971.08082	0.06928
3969.15218	0.07050
3967.22353	0.07243
3965.29489	0.07414
3963.36624	0.07471
3961.43759	0.07353
3959.50895	0.07058
3957.58030	0.06638
3955.65166	0.06188
3953.72301	0.05817
3951.79437	0.05616
3949.86572	0.05621
3947.93708	0.05797
3946.00843	0.06064
3944.07979	0.06335
3942.15114	0.06549
3940.22250	0.06685
3938.29385	0.06759
3936.36521	0.06793
3934.43656	0.06792
3932.50791	0.06739
3930.57927	0.06618
3928.65062	0.06436
3926.72198	0.06236
3924.79333	0.06076
3922.86469	0.06020
3920.93604	0.06116
3919.00740	0.06378
3917.07875	0.06768
3915.15011	0.07189
3913.22146	0.07494
3911.29282	0.07537
3909.36417	0.07243
3907.43552	0.06671
3905.50688	0.06016
3903.57823	0.05521
3901.64959	0.05360
3899.72094	0.05543
3897.79230	0.05911
3895.86365	0.06226
3893.93501	0.06314
3892.00636	0.06157
3890.07772	0.05889
3888.14907	0.05702
3886.22043	0.05746
3884.29178	0.06048
3882.36313	0.06510
3880.43449	0.06958
3878.50584	0.07239
3876.57720	0.07280
3874.64855	0.07110
3872.71991	0.06831
3870.79126	0.06576
3868.86262	0.06439
3866.93397	0.06431
3865.00533	0.06469
3863.07668	0.06436
3861.14804	0.06243
3859.21939	0.05879
3857.29074	0.05414
3855.36210	0.04976
3853.43345	0.04691
3851.50481	0.04630
3849.57616	0.04776
3847.64752	0.05046
3845.71887	0.05331
3843.79023	0.05546
3841.86158	0.05660
3839.93294	0.05717
3838.00429	0.05819
3836.07565	0.06066
3834.14700	0.06497
3832.21835	0.07050
3830.28971	0.07580
3828.36106	0.07916
3826.43242	0.07928
3824.50377	0.07593
3822.57513	0.07005
3820.64648	0.06347
3818.71784	0.05817
3816.78919	0.05561
3814.86055	0.05629
3812.93190	0.05949
3811.00326	0.06368
3809.07461	0.06728
3807.14597	0.06940
3805.21732	0.07019
3803.28867	0.07053
3801.36003	0.07145
3799.43138	0.07331
3797.50274	0.07549
3795.57409	0.07681
3793.64545	0.07638
3791.71680	0.07421
3789.78816	0.07123
3787.85951	0.06879
3785.93087	0.06792
3784.00222	0.06884
3782.07358	0.07092
3780.14493	0.07316
3778.21628	0.07467
3776.28764	0.07494
3774.35899	0.07395
3772.43035	0.07207
3770.50170	0.06996
3768.57306	0.06833
3766.64441	0.06778
3764.71577	0.06848
3762.78712	0.07004
3760.85848	0.07154
3758.92983	0.07181
3757.00119	0.06981
3755.07254	0.06523
3753.14389	0.05874
3751.21525	0.05184
3749.28660	0.04615
3747.35796	0.04269
3745.42931	0.04156
3743.50067	0.04205
3741.57202	0.04309
3739.64338	0.04400
3737.71473	0.04492
3735.78609	0.04655
3733.85744	0.04940
3731.92880	0.05324
3730.00015	0.05708
3728.07150	0.05972
3726.14286	0.06054
3724.21421	0.05988
3722.28557	0.05899
3720.35692	0.05945
3718.42828	0.06249
3716.49963	0.06839
3714.57099	0.07632
3712.64234	0.08471
3710.71370	0.09175
3708.78505	0.09590
3706.85641	0.09631
3704.92776	0.09302
3702.99911	0.08698
3701.07047	0.07971
3699.14182	0.07297
3697.21318	0.06837
3695.28453	0.06710
3693.35589	0.06974
3691.42724	0.07624
3689.49860	0.08584
3687.56995	0.09715
3685.64131	0.10837
3683.71266	0.11768
3681.78402	0.12376
3679.85537	0.12613
3677.92673	0.12533
3675.99808	0.12280
3674.06943	0.12035
3672.14079	0.11957
3670.21214	0.12143
3668.28350	0.12614
3666.35485	0.13321
3664.42621	0.14168
3662.49756	0.15061
3660.56892	0.15935
3658.64027	0.16782
3656.71163	0.17653
3654.78298	0.18653
3652.85434	0.19885
3650.92569	0.21395
3648.99704	0.23126
3647.06840	0.24939
3645.13975	0.26669
3643.21111	0.28183
3641.28246	0.29426
3639.35382	0.30423
3637.42517	0.31251
3635.49653	0.31999
3633.56788	0.32753
3631.63924	0.33607
3629.71059	0.34660
3627.78195	0.35976
3625.85330	0.37551
3623.92465	0.39307
3621.99601	0.41130
3620.06736	0.42928
3618.13872	0.44682
3616.21007	0.46435
3614.28143	0.48238
3612.35278	0.50078
3610.42414	0.51874
3608.49549	0.53521
3606.56685	0.54961
3604.63820	0.56235
3602.70956	0.57473
3600.78091	0.58805
3598.85226	0.60274
3596.92362	0.61816
3594.99497	0.63320
3593.06633	0.64704
3591.13768	0.65971
3589.20904	0.67219
3587.28039	0.68602
3585.35175	0.70235
3583.42310	0.72126
3581.49446	0.74164
3579.56581	0.76176
3577.63717	0.78001
3575.70852	0.79561
3573.77988	0.80899
3571.85123	0.82173
3569.92258	0.83579
3567.99394	0.85249
3566.06529	0.87191
3564.13665	0.89286
3562.20800	0.91349
3560.27936	0.93219
3558.35071	0.94821
3556.42207	0.96190
3554.49342	0.97437
3552.56478	0.98686
3550.63613	1.00025
3548.70749	1.01476
3546.77884	1.03000
3544.85019	1.04529
3542.92155	1.05991
3540.99290	1.07357
3539.06426	1.08660
3537.13561	1.09977
3535.20697	1.11396
3533.27832	1.12974
3531.34968	1.14712
3529.42103	1.16558
3527.49239	1.18440
3525.56374	1.20292
3523.63510	1.22070
3521.70645	1.23737
3519.77780	1.25266
3517.84916	1.26645
3515.92051	1.27887
3513.99187	1.29035
3512.06322	1.30182
3510.13458	1.31445
3508.20593	1.32911
3506.27729	1.34595
3504.34864	1.36437
3502.42000	1.38319
3500.49135	1.40093
3498.56271	1.41630
3496.63406	1.42864
3494.70541	1.43812
3492.77677	1.44543
3490.84812	1.45152
3488.91948	1.45741
3486.99083	1.46409
3485.06219	1.47230
3483.13354	1.48239
3481.20490	1.49426
3479.27625	1.50745
3477.34761	1.52131
3475.41896	1.53529
3473.49032	1.54919
3471.56167	1.56318
3469.63302	1.57752
3467.70438	1.59205
3465.77573	1.60613
3463.84709	1.61885
3461.91844	1.62955
3459.98980	1.63816
3458.06115	1.64534
3456.13251	1.65231
3454.20386	1.66025
3452.27522	1.66967
3450.34657	1.68030
3448.41793	1.69128
3446.48928	1.70152
3444.56064	1.71020
3442.63199	1.71714
3440.70334	1.72285
3438.77470	1.72831
3436.84605	1.73439
3434.91741	1.74154
3432.98876	1.74956
3431.06012	1.75788
3429.13147	1.76584
3427.20283	1.77308
3425.27418	1.77956
3423.34554	1.78540
3421.41689	1.79070
3419.48825	1.79544
3417.55960	1.79960
3415.63095	1.80332
3413.70231	1.80699
3411.77366	1.81121
3409.84502	1.81653
3407.91637	1.82327
3405.98773	1.83131
3404.05908	1.84012
3402.13044	1.84867
3400.20179	1.85565
3398.27315	1.85989
3396.34450	1.86100
3394.41586	1.85968
3392.48721	1.85746
3390.55856	1.85596
3388.62992	1.85614
3386.70127	1.85779
3384.77263	1.85970
3382.84398	1.86049
3380.91534	1.85947
3378.98669	1.85694
3377.05805	1.85379
3375.12940	1.85096
3373.20076	1.84899
3371.27211	1.84791
3369.34347	1.84735
3367.41482	1.84690
3365.48617	1.84628
3363.55753	1.84529
3361.62888	1.84380
3359.70024	1.84182
3357.77159	1.83956
3355.84295	1.83732
3353.91430	1.83542
3351.98566	1.83402
3350.05701	1.83291
3348.12837	1.83158
3346.19972	1.82946
3344.27108	1.82627
3342.34243	1.82222
3340.41378	1.81800
3338.48514	1.81459
3336.55649	1.81290
3334.62785	1.81327
3332.69920	1.81519
3330.77056	1.81755
3328.84191	1.81919
3326.91327	1.81946
3324.98462	1.81842
3323.05598	1.81654
3321.12733	1.81431
3319.19869	1.81192
3317.27004	1.80921
3315.34140	1.80601
3313.41275	1.80256
3311.48410	1.79958
3309.55546	1.79792
3307.62681	1.79803
3305.69817	1.79961
3303.76952	1.80184
3301.84088	1.80383
3299.91223	1.80500
3297.98359	1.80517
3296.05494	1.80457
3294.12630	1.80351
3292.19765	1.80212
3290.26901	1.80031
3288.34036	1.79792
3286.41171	1.79486
3284.48307	1.79117
3282.55442	1.78703
3280.62578	1.78269
3278.69713	1.77835
3276.76849	1.77403
3274.83984	1.76962
3272.91120	1.76487
3270.98255	1.75960
3269.05391	1.75385
3267.12526	1.74788
3265.19662	1.74199
3263.26797	1.73642
3261.33932	1.73116
3259.41068	1.72591
3257.48203	1.72011
3255.55339	1.71309
3253.62474	1.70435
3251.69610	1.69387
3249.76745	1.68218
3247.83881	1.67029
3245.91016	1.65953
3243.98152	1.65117
3242.05287	1.64595
3240.12423	1.64372
3238.19558	1.64352
3236.26693	1.64388
3234.33829	1.64312
3232.40964	1.63971
3230.48100	1.63274
3228.55235	1.62231
3226.62371	1.60938
3224.69506	1.59542
3222.76642	1.58198
3220.83777	1.57037
3218.90913	1.56120
3216.98048	1.55435
3215.05184	1.54934
3213.12319	1.54571
3211.19455	1.54306
3209.26590	1.54086
3207.33725	1.53838
3205.40861	1.53468
3203.47996	1.52880
3201.55132	1.52019
3199.62267	1.50910
3197.69403	1.49659
3195.76538	1.48423
3193.83674	1.47354
3191.90809	1.46538
3189.97945	1.45970
3188.05080	1.45561
3186.12216	1.45178
3184.19351	1.44696
3182.26486	1.44030
3180.33622	1.43162
3178.40757	1.42119
3176.47893	1.40942
3174.55028	1.39675
3172.62164	1.38353
3170.69299	1.37007
3168.76435	1.35676
3166.83570	1.34427
3164.90706	1.33352
3162.97841	1.32526
3161.04977	1.31975
3159.12112	1.31664
3157.19247	1.31501
3155.26383	1.31353
3153.33518	1.31088
3151.40654	1.30634
3149.47789	1.29998
3147.54925	1.29249
3145.62060	1.28480
3143.69196	1.27772
3141.76331	1.27157
3139.83467	1.26606
3137.90602	1.26056
3135.97738	1.25444
3134.04873	1.24728
3132.12008	1.23899
3130.19144	1.22992
3128.26279	1.22072
3126.33415	1.21205
3124.40550	1.20441
3122.47686	1.19799
3120.54821	1.19258
3118.61957	1.18754
3116.69092	1.18196
3114.76228	1.17517
3112.83363	1.16695
3110.90499	1.15771
3108.97634	1.14820
3107.04769	1.13933
3105.11905	1.13171
3103.19040	1.12545
3101.26176	1.12021
3099.33311	1.11549
3097.40447	1.11089
3095.47582	1.10626
3093.54718	1.10158
3091.61853	1.09689
3089.68989	1.09219
3087.76124	1.08735
3085.83260	1.08212
3083.90395	1.07622
3081.97531	1.06945
3080.04666	1.06159
3078.11801	1.05256
3076.18937	1.04261
3074.26072	1.03250
3072.33208	1.02322
3070.40343	1.01561
3068.47479	1.01006
3066.54614	1.00629
3064.61750	1.00343
3062.68885	1.00027
3060.76021	0.99580
3058.83156	0.98956
3056.90292	0.98173
3054.97427	0.97291
3053.04562	0.96395
3051.11698	0.95569
3049.18833	0.94873
3047.25969	0.94317
3045.33104	0.93870
3043.40240	0.93474
3041.47375	0.93076
3039.54511	0.92635
3037.61646	0.92134
3035.68782	0.91573
3033.75917	0.90960
3031.83053	0.90301
3029.90188	0.89599
3027.97323	0.88862
3026.04459	0.88109
3024.11594	0.87366
3022.18730	0.86669
3020.25865	0.86064
3018.33001	0.85593
3016.40136	0.85289
3014.47272	0.85151
3012.54407	0.85136
3010.61543	0.85165
3008.68678	0.85157
3006.75814	0.85062
3004.82949	0.84890
3002.90084	0.84697
3000.97220	0.84549
2999.04355	0.84465
2997.11491	0.84397
2995.18626	0.84265
2993.25762	0.84019
2991.32897	0.83690
2989.40033	0.83390
2987.47168	0.83266
2985.54304	0.83428
2983.61439	0.83868
2981.68575	0.84449
2979.75710	0.84985
2977.82845	0.85362
2975.89981	0.85589
2973.97116	0.85755
2972.04252	0.85958
2970.11387	0.86253
2968.18523	0.86626
2966.25658	0.86996
2964.32794	0.87275
2962.39929	0.87444
2960.47065	0.87543
2958.54200	0.87608
2956.61336	0.87641
2954.68471	0.87631
2952.75607	0.87610
2950.82742	0.87645
2948.89877	0.87809
2946.97013	0.88157
2945.04148	0.88699
2943.11284	0.89387
2941.18419	0.90130
2939.25555	0.90846
2937.32690	0.91494
2935.39826	0.92055
2933.46961	0.92509
2931.54097	0.92843
2929.61232	0.93057
2927.68368	0.93154
2925.75503	0.93123
2923.82638	0.92925
2921.89774	0.92479
2919.96909	0.91669
2918.04045	0.90401
2916.11180	0.88679
2914.18316	0.86631
2912.25451	0.84481
2910.32587	0.82482
2908.39722	0.80824
2906.46858	0.79552
2904.53993	0.78565
2902.61129	0.77701
2900.68264	0.76815
2898.75399	0.75837
2896.82535	0.74806
2894.89670	0.73825
2892.96806	0.72982
2891.03941	0.72290
2889.11077	0.71711
2887.18212	0.71198
2885.25348	0.70724
2883.32483	0.70291
2881.39619	0.69941
2879.46754	0.69727
2877.53890	0.69653
2875.61025	0.69662
2873.68160	0.69664
2871.75296	0.69584
2869.82431	0.69372
2867.89567	0.69017
2865.96702	0.68577
2864.03838	0.68183
2862.10973	0.67978
2860.18109	0.68051
2858.25244	0.68412
2856.32380	0.68964
2854.39515	0.69493
2852.46651	0.69705
2850.53786	0.69341
2848.60922	0.68282
2846.68057	0.66602
2844.75192	0.64550
2842.82328	0.62463
2840.89463	0.60655
2838.96599	0.59312
2837.03734	0.58443
2835.10870	0.57907
2833.18005	0.57516
2831.25141	0.57131
2829.32276	0.56694
2827.39412	0.56203
2825.46547	0.55681
2823.53683	0.55145
2821.60818	0.54579
2819.67953	0.53967
2817.75089	0.53334
2815.82224	0.52752
2813.89360	0.52300
2811.96495	0.52024
2810.03631	0.51898
2808.10766	0.51814
2806.17902	0.51645
2804.25037	0.51333
2802.32173	0.50914
2800.39308	0.50458
2798.46444	0.50023
2796.53579	0.49644
2794.60714	0.49317
2792.67850	0.48997
2790.74985	0.48650
2788.82121	0.48307
2786.89256	0.48043
2784.96392	0.47898
2783.03527	0.47850
2781.10663	0.47845
2779.17798	0.47827
2777.24934	0.47748
2775.32069	0.47574
2773.39205	0.47304
2771.46340	0.46973
2769.53475	0.46627
2767.60611	0.46298
2765.67746	0.46005
2763.74882	0.45767
2761.82017	0.45606
2759.89153	0.45524
2757.96288	0.45501
2756.03424	0.45498
2754.10559	0.45476
2752.17695	0.45406
2750.24830	0.45264
2748.31966	0.45033
2746.39101	0.44713
2744.46236	0.44323
2742.53372	0.43896
2740.60507	0.43467
2738.67643	0.43067
2736.74778	0.42719
2734.81914	0.42437
2732.89049	0.42223
2730.96185	0.42060
2729.03320	0.41923
2727.10456	0.41798
2725.17591	0.41678
2723.24727	0.41549
2721.31862	0.41374
2719.38998	0.41126
2717.46133	0.40809
2715.53268	0.40438
2713.60404	0.40026
2711.67539	0.39602
2709.74675	0.39216
2707.81810	0.38922
2705.88946	0.38755
2703.96081	0.38728
2702.03217	0.38813
2700.10352	0.38917
2698.17488	0.38925
2696.24623	0.38770
2694.31759	0.38477
2692.38894	0.38144
2690.46029	0.37899
2688.53165	0.37806
2686.60300	0.37812
2684.67436	0.37786
2682.74571	0.37633
2680.81707	0.37360
2678.88842	0.37056
2676.95978	0.36825
2675.03113	0.36708
2673.10249	0.36647
2671.17384	0.36540
2669.24520	0.36323
2667.31655	0.36004
2665.38790	0.35649
2663.45926	0.35335
2661.53061	0.35099
2659.60197	0.34922
2657.67332	0.34775
2655.74468	0.34658
2653.81603	0.34573
2651.88739	0.34477
2649.95874	0.34315
2648.03010	0.34065
2646.10145	0.33751
2644.17281	0.33428
2642.24416	0.33167
2640.31551	0.33011
2638.38687	0.32913
2636.45822	0.32755
2634.52958	0.32439
2632.60093	0.31969
2630.67229	0.31440
2628.74364	0.30991
2626.81500	0.30738
2624.88635	0.30717
2622.95771	0.30873
2621.02906	0.31095
2619.10042	0.31287
2617.17177	0.31414
2615.24312	0.31524
2613.31448	0.31667
2611.38583	0.31824
2609.45719	0.31900
2607.52854	0.31787
2605.59990	0.31437
2603.67125	0.30893
2601.74261	0.30302
2599.81396	0.29869
2597.88532	0.29716
2595.95667	0.29799
2594.02803	0.29963
2592.09938	0.30033
2590.17074	0.29905
2588.24209	0.29580
2586.31344	0.29148
2584.38480	0.28705
2582.45615	0.28300
2580.52751	0.27950
2578.59886	0.27666
2576.67022	0.27450
2574.74157	0.27316
2572.81293	0.27286
2570.88428	0.27352
2568.95564	0.27466
2567.02699	0.27613
2565.09835	0.27852
2563.16970	0.28276
2561.24105	0.28912
2559.31241	0.29669
2557.38376	0.30363
2555.45512	0.30809
2553.52647	0.30918
2551.59783	0.30748
2549.66918	0.30460
2547.74054	0.30229
2545.81189	0.30114
2543.88325	0.30016
2541.95460	0.29789
2540.02596	0.29371
2538.09731	0.28826
2536.16866	0.28274
2534.24002	0.27801
2532.31137	0.27415
2530.38273	0.27064
2528.45408	0.26700
2526.52544	0.26343
2524.59679	0.26097
2522.66815	0.26095
2520.73950	0.26438
2518.81086	0.27145
2516.88221	0.28125
2514.95357	0.29185
2513.02492	0.30090
2511.09627	0.30635
2509.16763	0.30685
2507.23898	0.30221
2505.31034	0.29411
2503.38169	0.28591
2501.45305	0.28064
2499.52440	0.27909
2497.59576	0.27991
2495.66711	0.28096
2493.73847	0.28037
2491.80982	0.27736
2489.88118	0.27309
2487.95253	0.27028
2486.02389	0.27116
2484.09524	0.27593
2482.16659	0.28295
2480.23795	0.28999
2478.30930	0.29506
2476.38066	0.29695
2474.45201	0.29551
2472.52337	0.29142
2470.59472	0.28585
2468.66608	0.28019
2466.73743	0.27563
2464.80879	0.27265
2462.88014	0.27135
2460.95150	0.27190
2459.02285	0.27408
2457.09420	0.27699
2455.16556	0.27978
2453.23691	0.28214
2451.30827	0.28381
2449.37962	0.28399
2447.45098	0.28210
2445.52233	0.27863
2443.59369	0.27471
2441.66504	0.27151
2439.73640	0.27019
2437.80775	0.27158
2435.87911	0.27555
2433.95046	0.28084
2432.02181	0.28571
2430.09317	0.28890
2428.16452	0.29005
2426.23588	0.28947
2424.30723	0.28778
2422.37859	0.28534
2420.44994	0.28222
2418.52130	0.27869
2416.59265	0.27544
2414.66401	0.27330
2412.73536	0.27298
2410.80672	0.27473
2408.87807	0.27801
2406.94942	0.28160
2405.02078	0.28436
2403.09213	0.28606
2401.16349	0.28713
2399.23484	0.28792
2397.30620	0.28838
2395.37755	0.28816
2393.44891	0.28684
2391.52026	0.28438
2389.59162	0.28156
2387.66297	0.27985
2385.73433	0.28064
2383.80568	0.28431
2381.87703	0.28991
2379.94839	0.29537
2378.01974	0.29811
2376.09110	0.29606
2374.16245	0.28873
2372.23381	0.27760
2370.30516	0.26566
2368.37652	0.25644
2366.44787	0.25318
2364.51923	0.25786
2362.59058	0.27038
2360.66194	0.28831
2358.73329	0.30769
2356.80465	0.32413
2354.87600	0.33417
2352.94735	0.33663
2351.01871	0.33330
2349.09006	0.32828
2347.16142	0.32597
2345.23277	0.32892
2343.30413	0.33698
2341.37548	0.34744
2339.44684	0.35611
2337.51819	0.35906
2335.58955	0.35404
2333.66090	0.34130
2331.73226	0.32336
2329.80361	0.30407
2327.87496	0.28746
2325.94632	0.27661
2324.01767	0.27271
2322.08903	0.27469
2320.16038	0.27971
2318.23174	0.28455
2316.30309	0.28709
2314.37445	0.28676
2312.44580	0.28432
2310.51716	0.28123
2308.58851	0.27896
2306.65987	0.27848
2304.73122	0.27980
2302.80257	0.28208
2300.87393	0.28391
2298.94528	0.28379
2297.01664	0.28064
2295.08799	0.27447
2293.15935	0.26673
2291.23070	0.25987
2289.30206	0.25607
2287.37341	0.25595
2285.44477	0.25819
2283.51612	0.26047
2281.58748	0.26090
2279.65883	0.25899
2277.73018	0.25565
2275.80154	0.25217
2273.87289	0.24917
2271.94425	0.24604
2270.01560	0.24156
2268.08696	0.23504
2266.15831	0.22703
2264.22967	0.21875
2262.30102	0.21086
2260.37238	0.20305
2258.44373	0.19490
2256.51509	0.18634
2254.58644	0.17755
2252.65779	0.16903
2250.72915	0.16113
2248.80050	0.15337
2246.87186	0.14566
2244.94321	0.14056
2243.01457	0.14380
2241.08592	0.16023
2239.15728	0.18968
2237.22863	0.22577
2235.29999	0.25688
2233.37134	0.26975
2231.44270	0.25659
2229.51405	0.22090
2227.58541	0.17576
2225.65676	0.13605
2223.72811	0.11200
2221.79947	0.10738
2219.87082	0.11963
2217.94218	0.14136
2216.01353	0.16555
2214.08489	0.19006
2212.15624	0.21470
2210.22760	0.23526
2208.29895	0.24407
2206.37031	0.23573
2204.44166	0.21026
2202.51302	0.17283
2200.58437	0.13382
2198.65572	0.10490
2196.72708	0.09008
2194.79843	0.08291
2192.86979	0.07278
2190.94114	0.05249
2189.01250	0.02407
2187.08385	0.00084
2185.15521	0.00000
2183.22656	0.02882
2181.29792	0.07800
2179.36927	0.12892
2177.44063	0.16363
2175.51198	0.17195
2173.58333	0.15791
2171.65469	0.13703
2169.72604	0.12239
2167.79740	0.11538
2165.86875	0.10943
2163.94011	0.09901
2162.01146	0.08549
2160.08282	0.07738
2158.15417	0.08463
2156.22553	0.10957
2154.29688	0.14329
2152.36824	0.17181
2150.43959	0.18403
2148.51094	0.17610
2146.58230	0.15377
2144.65365	0.12887
2142.72501	0.11107
2140.79636	0.10460
2138.86772	0.11039
2136.93907	0.12696
2135.01043	0.14938
2133.08178	0.17092
2131.15314	0.18670
2129.22449	0.19495
2127.29585	0.19613
2125.36720	0.19318
2123.43856	0.19039
2121.50991	0.18958
2119.58126	0.18853
2117.65262	0.18352
2115.72397	0.17283
2113.79533	0.15857
2111.86668	0.14563
2109.93804	0.13895
2108.00939	0.14067
2106.08075	0.14910
2104.15210	0.16027
2102.22346	0.17024
2100.29481	0.17697
2098.36617	0.18132
2096.43752	0.18589
2094.50887	0.19240
2092.58023	0.20014
2090.65158	0.20669
2088.72294	0.20948
2086.79429	0.20692
2084.86565	0.19910
2082.93700	0.18823
2081.00836	0.17804
2079.07971	0.17203
2077.15107	0.17205
2075.22242	0.17747
2073.29378	0.18528
2071.36513	0.19138
2069.43648	0.19290
2067.50784	0.18999
2065.57919	0.18583
2063.65055	0.18452
2061.72190	0.18847
2059.79326	0.19698
2057.86461	0.20647
2055.93597	0.21172
2054.00732	0.20775
2052.07868	0.19174
2050.15003	0.16401
2048.22139	0.12804
2046.29274	0.09026
2044.36409	0.05969
2042.43545	0.04602
2040.50680	0.05579
2038.57816	0.08858
2036.64951	0.13712
2034.72087	0.18830
2032.79222	0.22757
2030.86358	0.24428
2028.93493	0.23599
2027.00629	0.20884
2025.07764	0.17370
2023.14900	0.14117
2021.22035	0.11841
2019.29170	0.10830
2017.36306	0.10995
2015.43441	0.12011
2013.50577	0.13519
2011.57712	0.15230
2009.64848	0.16864
2007.71983	0.18089
2005.79119	0.18640
2003.86254	0.18477
2001.93390	0.17745
2000.00525	0.16585
1998.07661	0.15056
1996.14796	0.13227
1994.21932	0.11280
1992.29067	0.09590
1990.36202	0.08762
1988.43338	0.09455
1986.50473	0.11935
1984.57609	0.15709
1982.64744	0.19585
1980.71880	0.22162
1978.79015	0.22473
1976.86151	0.20499
1974.93286	0.17245
1973.00422	0.14246
1971.07557	0.12826
1969.14693	0.13555
1967.21828	0.16109
1965.28963	0.19521
1963.36099	0.22653
1961.43234	0.24687
1959.50370	0.25336
1957.57505	0.24747
1955.64641	0.23280
1953.71776	0.21360
1951.78912	0.19417
1949.86047	0.17818
1947.93183	0.16796
1946.00318	0.16404
1944.07454	0.16536
1942.14589	0.16954
1940.21724	0.17361
1938.28860	0.17541
1936.35995	0.17488
1934.43131	0.17384
1932.50266	0.17460
1930.57402	0.17865
1928.64537	0.18595
1926.71673	0.19468
1924.78808	0.20174
1922.85944	0.20417
1920.93079	0.20045
1919.00215	0.19124
1917.07350	0.17920
1915.14485	0.16805
1913.21621	0.16114
1911.28756	0.16014
1909.35892	0.16453
1907.43027	0.17184
1905.50163	0.17894
1903.57298	0.18346
1901.64434	0.18465
1899.71569	0.18328
1897.78705	0.18085
1895.85840	0.17875
1893.92976	0.17754
1892.00111	0.17697
1890.07246	0.17660
1888.14382	0.17646
1886.21517	0.17709
1884.28653	0.17914
1882.35788	0.18275
1880.42924	0.18736
1878.50059	0.19187
1876.57195	0.19529
1874.64330	0.19736
1872.71466	0.19870
1870.78601	0.20016
1868.85737	0.20210
1866.92872	0.20410
1865.00008	0.20521
1863.07143	0.20446
1861.14278	0.20153
1859.21414	0.19699
1857.28549	0.19198
1855.35685	0.18762
1853.42820	0.18447
1851.49956	0.18255
1849.57091	0.18139
1847.64227	0.18038
1845.71362	0.17919
1843.78498	0.17797
1841.85633	0.17726
1839.92769	0.17771
1837.99904	0.17979
1836.07039	0.18345
1834.14175	0.18798
1832.21310	0.19228
1830.28446	0.19537
1828.35581	0.19695
1826.42717	0.19740
1824.49852	0.19754
1822.56988	0.19812
1820.64123	0.19933
1818.71259	0.20075
1816.78394	0.20181
1814.85530	0.20235
1812.92665	0.20277
1810.99800	0.20376
1809.06936	0.20578
1807.14071	0.20870
1805.21207	0.21170
1803.28342	0.21366
1801.35478	0.21378
1799.42613	0.21198
1797.49749	0.20886
1795.56884	0.20532
1793.64020	0.20224
1791.71155	0.20029
1789.78291	0.19977
1787.85426	0.20071
1785.92561	0.20292
1783.99697	0.20599
1782.06832	0.20939
1780.13968	0.21259
1778.21103	0.21530
1776.28239	0.21754
1774.35374	0.21956
1772.42510	0.22170
1770.49645	0.22420
1768.56781	0.22706
1766.63916	0.23020
1764.71052	0.23364
1762.78187	0.23761
1760.85322	0.24257
1758.92458	0.24904
1756.99593	0.25736
1755.06729	0.26749
1753.13864	0.27899
1751.21000	0.29112
1749.28135	0.30300
1747.35271	0.31378
1745.42406	0.32278
1743.49542	0.32980
1741.56677	0.33515
1739.63813	0.33964
1737.70948	0.34446
1735.78084	0.35082
1733.85219	0.35957
1731.92354	0.37076
1729.99490	0.38359
1728.06625	0.39668
1726.13761	0.40870
1724.20896	0.41888
1722.28032	0.42736
1720.35167	0.43517
1718.42303	0.44369
1716.49438	0.45406
1714.56574	0.46654
1712.63709	0.48053
1710.70845	0.49497
1708.77980	0.50897
1706.85115	0.52237
1704.92251	0.53592
1702.99386	0.55097
1701.06522	0.56883
1699.13657	0.59011
1697.20793	0.61445
1695.27928	0.64064
1693.35064	0.66731
1691.42199	0.69359
1689.49335	0.71941
1687.56470	0.74538
1685.63606	0.77230
1683.70741	0.80064
1681.77876	0.83015
1679.85012	0.85998
1677.92147	0.88930
1675.99283	0.91778
1674.06418	0.94566
1672.13554	0.97359
1670.20689	1.00226
1668.27825	1.03193
1666.34960	1.06197
1664.42096	1.09090
1662.49231	1.11693
1660.56367	1.13875
1658.63502	1.15589
1656.70637	1.16893
1654.77773	1.17939
1652.84908	1.18900
1650.92044	1.19889
1648.99179	1.20905
1647.06315	1.21867
1645.13450	1.22668
1643.20586	1.23231
1641.27721	1.23542
1639.34857	1.23648
1637.41992	1.23615
1635.49128	1.23470
1633.56263	1.23172
1631.63399	1.22632
1629.70534	1.21754
1627.77669	1.20489
1625.84805	1.18870
1623.91940	1.17021
1621.99076	1.15133
1620.06211	1.13407
1618.13347	1.11999
1616.20482	1.10978
1614.27618	1.10317
1612.34753	1.09916
1610.41889	1.09646
1608.49024	1.09403
1606.56160	1.09127
1604.63295	1.08804
1602.70430	1.08442
1600.77566	1.08043
1598.84701	1.07590
1596.91837	1.07054
1594.98972	1.06412
1593.06108	1.05666
1591.13243	1.04829
1589.20379	1.03905
1587.27514	1.02881
1585.34650	1.01733
1583.41785	1.00448
1581.48921	0.99043
1579.56056	0.97589
1577.63191	0.96201
1575.70327	0.94996
1573.77462	0.94029
1571.84598	0.93258
1569.91733	0.92546
1567.98869	0.91718
1566.06004	0.90641
1564.13140	0.89294
1562.20275	0.87798
1560.27411	0.86364
1558.34546	0.85193
1556.41682	0.84365
1554.48817	0.83791
1552.55952	0.83248
1550.63088	0.82471
1548.70223	0.81267
1546.77359	0.79593
1544.84494	0.77565
1542.91630	0.75406
1540.98765	0.73358
1539.05901	0.71601
1537.13036	0.70203
1535.20172	0.69124
1533.27307	0.68255
1531.34443	0.67480
1529.41578	0.66726
1527.48713	0.65992
1525.55849	0.65335
1523.62984	0.64824
1521.70120	0.64470
1519.77255	0.64189
1517.84391	0.63805
1515.91526	0.63121
1513.98662	0.62003
1512.05797	0.60444
1510.12933	0.58561
1508.20068	0.56542
1506.27204	0.54561
1504.34339	0.52713
1502.41475	0.51000
1500.48610	0.49383
1498.55745	0.47846
1496.62881	0.46431
1494.70016	0.45212
1492.77152	0.44259
1490.84287	0.43591
1488.91423	0.43172
1486.98558	0.42918
1485.05694	0.42749
1483.12829	0.42643
1481.19965	0.42664
1479.27100	0.42944
1477.34236	0.43633
1475.41371	0.44834
1473.48506	0.46545
1471.55642	0.48632
1469.62777	0.50846
1467.69913	0.52891
1465.77048	0.54527
1463.84184	0.55637
1461.91319	0.56239
1459.98455	0.56453
1458.05590	0.56439
1456.12726	0.56335
1454.19861	0.56199
1452.26997	0.56024
1450.34132	0.55773
1448.41267	0.55416
1446.48403	0.54948
1444.55538	0.54404
1442.62674	0.53856
1440.69809	0.53401
1438.76945	0.53150
1436.84080	0.53220
1434.91216	0.53705
1432.98351	0.54640
1431.05487	0.55969
1429.12622	0.57553
1427.19758	0.59203
1425.26893	0.60749
1423.34028	0.62098
1421.41164	0.63270
1419.48299	0.64375
1417.55435	0.65536
1415.62570	0.66820
1413.69706	0.68205
1411.76841	0.69585
1409.83977	0.70824
1407.91112	0.71813
1405.98248	0.72507
1404.05383	0.72933
1402.12519	0.73166
1400.19654	0.73291
1398.26789	0.73373
1396.33925	0.73445
1394.41060	0.73498
1392.48196	0.73498
1390.55331	0.73404
1388.62467	0.73191
1386.69602	0.72859
1384.76738	0.72429
1382.83873	0.71926
1380.91009	0.71362
1378.98144	0.70731
1377.05280	0.70016
1375.12415	0.69195
1373.19551	0.68258
1371.26686	0.67216
1369.33821	0.66100
1367.40957	0.64958
1365.48092	0.63853
1363.55228	0.62850
1361.62363	0.61994
1359.69499	0.61296
1357.76634	0.60723
1355.83770	0.60221
1353.90905	0.59729
1351.98041	0.59200
1350.05176	0.58613
1348.12312	0.57974
1346.19447	0.57305
1344.26582	0.56632
1342.33718	0.55989
1340.40853	0.55413
1338.47989	0.54929
1336.55124	0.54542
1334.62260	0.54231
1332.69395	0.53955
1330.76531	0.53667
1328.83666	0.53342
1326.90802	0.52981
1324.97937	0.52616
1323.05073	0.52290
1321.12208	0.52028
1319.19343	0.51829
1317.26479	0.51664
1315.33614	0.51502
1313.40750	0.51325
1311.47885	0.51137
1309.55021	0.50968
1307.62156	0.50856
1305.69292	0.50837
1303.76427	0.50929
1301.83563	0.51128
1299.90698	0.51418
1297.97834	0.51774
1296.04969	0.52169
1294.12104	0.52576
1292.19240	0.52975
1290.26375	0.53360
1288.33511	0.53732
1286.40646	0.54100
1284.47782	0.54477
1282.54917	0.54883
1280.62053	0.55343
1278.69188	0.55870
1276.76324	0.56455
1274.83459	0.57065
1272.90595	0.57655
1270.97730	0.58175
1269.04866	0.58596
1267.12001	0.58913
1265.19136	0.59151
1263.26272	0.59335
1261.33407	0.59474
1259.40543	0.59554
1257.47678	0.59549
1255.54814	0.59448
1253.61949	0.59265
1251.69085	0.59040
1249.76220	0.58832
1247.83356	0.58699
1245.90491	0.58678
1243.97627	0.58774
1242.04762	0.58974
1240.11897	0.59255
1238.19033	0.59598
1236.26168	0.59986
1234.33304	0.60405
1232.40439	0.60830
1230.47575	0.61222
1228.54710	0.61530
1226.61846	0.61704
1224.68981	0.61718
1222.76117	0.61585
1220.83252	0.61361
1218.90388	0.61120
1216.97523	0.60925
1215.04658	0.60805
1213.11794	0.60752
1211.18929	0.60731
1209.26065	0.60698
1207.33200	0.60634
1205.40336	0.60568
1203.47471	0.60559
1201.54607	0.60668
1199.61742	0.60942
1197.68878	0.61399
1195.76013	0.62023
1193.83149	0.62770
1191.90284	0.63618
1189.97419	0.64607
1188.04555	0.65811
1186.11690	0.67295
1184.18826	0.69082
1182.25961	0.71152
1180.33097	0.73448
1178.40232	0.75906
1176.47368	0.78492
1174.54503	0.81202
1172.61639	0.84038
1170.68774	0.86990
1168.75910	0.90035
1166.83045	0.93143
1164.90180	0.96294
1162.97316	0.99494
1161.04451	1.02759
1159.11587	1.06082
1157.18722	1.09427
1155.25858	1.12744
1153.32993	1.15986
1151.40129	1.19112
1149.47264	1.22114
1147.54400	1.25061
1145.61535	1.28090
1143.68671	1.31367
1141.75806	1.35027
1139.82942	1.39121
1137.90077	1.43577
1135.97212	1.48227
1134.04348	1.52882
1132.11483	1.57382
1130.18619	1.61600
1128.25754	1.65453
1126.32890	1.68923
1124.40025	1.72025
1122.47161	1.74777
1120.54296	1.77216
1118.61432	1.79437
1116.68567	1.81533
1114.75703	1.83506
1112.82838	1.85273
1110.89973	1.86770
1108.97109	1.88006
1107.04244	1.89048
1105.11380	1.90007
1103.18515	1.91014
1101.25651	1.92161
1099.32786	1.93425
1097.39922	1.94694
1095.47057	1.95877
1093.54193	1.96968
1091.61328	1.97987
1089.68464	1.98905
1087.75599	1.99620
1085.82734	2.00000
1083.89870	1.99929
1081.97005	1.99348
1080.04141	1.98278
1078.11276	1.96807
1076.18412	1.95013
1074.25547	1.92906
1072.32683	1.90437
1070.39818	1.87559
1068.46954	1.84288
1066.54089	1.80725
1064.61225	1.77041
1062.68360	1.73423
1060.75495	1.70005
1058.82631	1.66823
1056.89766	1.63807
1054.96902	1.60819
1053.04037	1.57725
1051.11173	1.54486
1049.18308	1.51173
1047.25444	1.47901
1045.32579	1.44764
1043.39715	1.41820
1041.46850	1.39107
1039.53986	1.36640
1037.61121	1.34394
1035.68256	1.32305
1033.75392	1.30268
1031.82527	1.28137
1029.89663	1.25753
1027.96798	1.23040
1026.03934	1.20074
1024.11069	1.17061
1022.18205	1.14227
1020.25340	1.11734
1018.32476	1.09636
1016.39611	1.07904
1014.46747	1.06459
1012.53882	1.05216
1010.61018	1.04115
1008.68153	1.03132
1006.75288	1.02271
1004.82424	1.01541
1002.89559	1.00944
1000.96695	1.00483
999.03830	1.00167
997.10966	0.99987
995.18101	0.99875
993.25237	0.99705
991.32372	0.99318
989.39508	0.98581
987.46643	0.97411
985.53779	0.95788
983.60914	0.93782
981.68049	0.91557
979.75185	0.89274
977.82320	0.86983
975.89456	0.84630
973.96591	0.82131
972.03727	0.79408
970.10862	0.76427
968.17998	0.73261
966.25133	0.70119
964.32269	0.67242
962.39404	0.64765
960.46540	0.62653
958.53675	0.60766
956.60810	0.58960
954.67946	0.57144
952.75081	0.55310
950.82217	0.53570
948.89352	0.52138
946.96488	0.51198
945.03623	0.50745
943.10759	0.50627
941.17894	0.50692
939.25030	0.50821
937.32165	0.50895
935.39301	0.50851
933.46436	0.50730
931.53571	0.50598
929.60707	0.50414
927.67842	0.50061
925.74978	0.49514
923.82113	0.48876
921.89249	0.48277
919.96384	0.47797
918.03520	0.47475
916.10655	0.47297
914.17791	0.47165
912.24926	0.46938
910.32062	0.46562
908.39197	0.46092
906.46333	0.45583
904.53468	0.45032
902.60603	0.44468
900.67739	0.44030
898.74874	0.43897
896.82010	0.44182
894.89145	0.44885
892.96281	0.45879
891.03416	0.46910
889.10552	0.47689
887.17687	0.48078
885.24823	0.48186
883.31958	0.48237
881.39094	0.48387
879.46229	0.48650
877.53364	0.48954
875.60500	0.49199
873.67635	0.49323
871.74771	0.49374
869.81906	0.49515
867.89042	0.49905
865.96177	0.50566
864.03313	0.51383
862.10448	0.52172
860.17584	0.52727
858.24719	0.52864
856.31855	0.52480
854.38990	0.51613
852.46125	0.50450
850.53261	0.49276
848.60396	0.48370
846.67532	0.47899
844.74667	0.47832
842.81803	0.47961
840.88938	0.48029
838.96074	0.47867
837.03209	0.47473
835.10345	0.46967
833.17480	0.46469
831.24616	0.46000
829.31751	0.45493
827.38886	0.44899
825.46022	0.44302
823.53157	0.43896
821.60293	0.43852
819.67428	0.44173
817.74564	0.44642
815.81699	0.44930
813.88835	0.44803
811.95970	0.44298
810.03106	0.43710
808.10241	0.43403
806.17377	0.43617
804.24512	0.44354
802.31647	0.45365
800.38783	0.46260
798.45918	0.46711
796.53054	0.46574
794.60189	0.45882
792.67325	0.44802
790.74460	0.43618
788.81596	0.42674
786.88731	0.42257
784.95867	0.42508
783.03002	0.43402
781.10138	0.44744
779.17273	0.46198
777.24409	0.47359
775.31544	0.47889
773.38679	0.47642
771.45815	0.46723
769.52950	0.45452
767.60086	0.44246
765.67221	0.43442
763.74357	0.43173
761.81492	0.43356
759.88628	0.43774
757.95763	0.44202
756.02899	0.44530
754.10034	0.44808
752.17170	0.45139
750.24305	0.45519
748.31440	0.45865
746.38576	0.46142
744.45711	0.46396
742.52847	0.46701
740.59982	0.47129
738.67118	0.47702
736.74253	0.48310
734.81389	0.48712
732.88524	0.48732
730.95660	0.48419
729.02795	0.47993
727.09931	0.47697
725.17066	0.47679
723.24201	0.47933
721.31337	0.48327
719.38472	0.48682
717.45608	0.48893
715.52743	0.48976
713.59879	0.49034
711.67014	0.49187
709.74150	0.49511
707.81285	0.50010
705.88421	0.50630
703.95556	0.51282
702.02692	0.51874
700.09827	0.52325
698.16962	0.52594
696.24098	0.52684
694.31233	0.52646
692.38369	0.52554
690.45504	0.52479
688.52640	0.52474
686.59775	0.52574
684.66911	0.52778
682.74046	0.53061
680.81182	0.53436
678.88317	0.53988
676.95453	0.54802
675.02588	0.55861
673.09723	0.56987
671.16859	0.57865
669.23994	0.58129
667.31130	0.57528
665.38265	0.56121
663.45401	0.54312
661.52536	0.52648
659.59672	0.51584
657.66807	0.51326
655.73943	0.51810
653.81078	0.52787
651.88214	0.53963
649.95349	0.55132
648.02485	0.56196
646.09620	0.57100
644.16755	0.57812
642.23891	0.58326
640.31026	0.58722
638.38162	0.59223
636.45297	0.60182
634.52433	0.61909
632.59568	0.64356
630.66704	0.66925
628.73839	0.68612
626.80975	0.68435
624.88110	0.65900
622.95246	0.61247
621.02381	0.55402
619.09516	0.49633
617.16652	0.45028
615.23787	0.42147
613.30923	0.41157
611.38058	0.42174
609.45194	0.45349
607.52329	0.50580
605.59465	0.57217
603.66600	0.64102
601.73736	0.69898
599.80871	0.73534
597.88007	0.74646
595.95142	0.73718
594.02277	0.71743
592.09413	0.69649
590.16548	0.67937
588.23684	0.66720
586.30819	0.65965
584.37955	0.65671
582.45090	0.65868
580.52226	0.66524
578.59361	0.67471
576.66497	0.68457
574.73632	0.69297
572.80768	0.70015
570.87903	0.70884
568.95038	0.72294
567.02174	0.74534
565.09309	0.77601
563.16445	0.81192
561.23580	0.84833
559.30716	0.88071
557.37851	0.90632
555.44987	0.92470
553.52122	0.93732
551.59258	0.94662
549.66393	0.95497
547.73529	0.96397
545.80664	0.97425
543.87800	0.98556
541.94935	0.99666
540.02070	1.00524
538.09206	1.00846
536.16341	1.00416
534.23477	0.99180
532.30612	0.97295
530.37748	0.95076
528.44883	0.92879
526.52019	0.90938
524.59154	0.89259
522.66290	0.87647
520.73425	0.85846
518.80561	0.83680
516.87696	0.81128
514.94831	0.78321
513.01967	0.75500
511.09102	0.72938
509.16238	0.70834
507.23373	0.69252
505.30509	0.68108
503.37644	0.67190
501.44780	0.66220
499.51915	0.64972
497.59051	0.63403
495.66186	0.61722
493.73322	0.60332
491.80457	0.59699
489.87592	0.60188
487.94728	0.61916
486.01863	0.64673
484.08999	0.67958
482.16134	0.71109
480.23270	0.73498
478.30405	0.74708
476.37541	0.74639
474.44676	0.73494
472.51812	0.71649
470.58947	0.69466
468.66083	0.67154
466.73218	0.64773
464.80353	0.62358
462.87489	0.60031
460.94624	0.58017
459.01760	0.56565
457.08895	0.55818
455.16031	0.55691
453.23166	0.55864
451.30302	0.55914
449.37437	0.55516
447.44573	0.54563
445.51708	0.53153
443.58844	0.51512
441.65979	0.49905
439.73114	0.48556
437.80250	0.47577
435.87385	0.46963
433.94521	0.46635
432.01656	0.46486
430.08792	0.46386
428.15927	0.46205
426.23063	0.45849
424.30198	0.45283
422.37334	0.44515
420.44469	0.43565
418.51605	0.42452
416.58740	0.41201
414.65876	0.39845
412.73011	0.38429
410.80146	0.37015
408.87282	0.35687
406.94417	0.34532
405.01553	0.33605
403.08688	0.32915
401.15824	0.32434
399.22959	0.32106
397.30095	0.31826
395.37230	0.31451
393.44366	0.30866
391.51501	0.30046
389.58637	0.29074
387.65772	0.28127
385.72907	0.27418
383.80043	0.27086
381.87178	0.27108
379.94314	0.27324
378.01449	0.27551
376.08585	0.27671
374.15720	0.27665
372.22856	0.27601
370.29991	0.27553
368.37127	0.27487
366.44262	0.27238
364.51398	0.26598
362.58533	0.25439
360.65668	0.23770
358.72804	0.21769
356.79939	0.19773
354.87075	0.18182
352.94210	0.17277
351.01346	0.17087
349.08481	0.17393
347.15617	0.17818
345.22752	0.17948
343.29888	0.17491
341.37023	0.16446
339.44159	0.15144
337.51294	0.14108
335.58429	0.13793
333.65565	0.14377
331.72700	0.15659
329.79836	0.17109
327.86971	0.18101
325.94107	0.18213
324.01242	0.17445
322.08378	0.16224
320.15513	0.15187
318.22649	0.14832
316.29784	0.15229
314.36920	0.15987
312.44055	0.16477
310.51190	0.16151
308.58326	0.14813
306.65461	0.12740
304.72597	0.10569
302.79732	0.08951
300.86868	0.08206
298.94003	0.08264
297.01139	0.08749
295.08274	0.09291
293.15410	0.09686
291.22545	0.09932
289.29681	0.10097
287.36816	0.10156
285.43952	0.09973
283.51087	0.09468
281.58222	0.08822
279.65358	0.08532
277.72493	0.09196
275.79629	0.11124
273.86764	0.14026
271.93900	0.17086
270.01035	0.19366
268.08171	0.20259
266.15306	0.19773
264.22442	0.18522
262.29577	0.17417
260.36713	0.17210
258.43848	0.18161
256.50983	0.20032
254.58119	0.22315
252.65254	0.24484
250.72390	0.26162
248.79525	0.27204
246.86661	0.27694
244.93796	0.27848
243.00932	0.27879
241.08067	0.27910
239.15203	0.27950
237.22338	0.27882
235.29474	0.27495
233.36609	0.26624
231.43744	0.25357
229.50880	0.24173
227.58015	0.23865
225.65151	0.25245
223.72286	0.28737
221.79422	0.34043
219.86557	0.40103
217.93693	0.45505
216.00828	0.49125
214.07964	0.50638
212.15099	0.50610
210.22235	0.50150
208.29370	0.50321
206.36505	0.51591
204.43641	0.53658
202.50776	0.55767
200.57912	0.57216
198.65047	0.57717
196.72183	0.57447
194.79318	0.56902
192.86454	0.56581
190.93589	0.56664
189.00725	0.56905
187.07860	0.56870
185.14996	0.56278
183.22131	0.55232
181.29267	0.54317
179.36402	0.54550
177.43537	0.57015
175.50673	0.62230
173.57808	0.69690
171.64944	0.77917
169.72079	0.84894
167.79215	0.88710
165.86350	0.88449
163.93486	0.84983
162.00621	0.82960
160.07757	0.83085
158.14892	0.85477
156.22028	0.89460
154.29163	0.89460
152.36298	0.89460
150.43434	0.89460
148.50569	0.89460
