4497.60101	0.20901
4495.67236	0.20901
4493.74372	0.20901
4491.81507	0.20901
4489.88643	0.20901
4487.95778	0.20873
4486.02914	0.20823
4484.10049	0.20733
4482.17185	0.20614
4480.24320	0.20502
4478.31455	0.20411
4476.38591	0.20353
4474.45726	0.20342
4472.52862	0.20357
4470.59997	0.20330
4468.67133	0.20219
4466.74268	0.20047
4464.81404	0.19876
4462.88539	0.19767
4460.95675	0.19778
4459.02810	0.19926
4457.09946	0.20158
4455.17081	0.20380
4453.24216	0.20518
4451.31352	0.20528
4449.38487	0.20392
4447.45623	0.20124
4445.52758	0.19767
4443.59894	0.19373
4441.67029	0.18990
4439.74165	0.18679
4437.81300	0.18502
4435.88436	0.18497
4433.95571	0.18660
4432.02707	0.18950
4430.09842	0.19283
4428.16978	0.19564
4426.24113	0.19749
4424.31248	0.19865
4422.38384	0.19976
4420.45519	0.20136
4418.52655	0.20364
4416.59790	0.20609
4414.66926	0.20742
4412.74061	0.20641
4410.81197	0.20295
4408.88332	0.19819
4406.95468	0.19375
4405.02603	0.19086
4403.09739	0.19000
4401.16874	0.19058
4399.24009	0.19139
4397.31145	0.19149
4395.38280	0.19098
4393.45416	0.19063
4391.52551	0.19121
4389.59687	0.19317
4387.66822	0.19630
4385.73958	0.19969
4383.81093	0.20225
4381.88229	0.20337
4379.95364	0.20297
4378.02500	0.20127
4376.09635	0.19878
4374.16770	0.19623
4372.23906	0.19426
4370.31041	0.19316
4368.38177	0.19308
4366.45312	0.19407
4364.52448	0.19592
4362.59583	0.19813
4360.66719	0.20001
4358.73854	0.20085
4356.80990	0.20018
4354.88125	0.19823
4352.95261	0.19585
4351.02396	0.19401
4349.09531	0.19328
4347.16667	0.19372
4345.23802	0.19490
4343.30938	0.19617
4341.38073	0.19712
4339.45209	0.19771
4337.52344	0.19803
4335.59480	0.19792
4333.66615	0.19710
4331.73751	0.19532
4329.80886	0.19274
4327.88022	0.19003
4325.95157	0.18810
4324.02292	0.18753
4322.09428	0.18825
4320.16563	0.18977
4318.23699	0.19133
4316.30834	0.19223
4314.37970	0.19212
4312.45105	0.19111
4310.52241	0.18957
4308.59376	0.18814
4306.66512	0.18757
4304.73647	0.18843
4302.80783	0.19068
4300.87918	0.19380
4298.95054	0.19706
4297.02189	0.19962
4295.09324	0.20083
4293.16460	0.20070
4291.23595	0.19975
4289.30731	0.19839
4287.37866	0.19676
4285.45002	0.19499
4283.52137	0.19310
4281.59273	0.19099
4279.66408	0.18868
4277.73544	0.18651
4275.80679	0.18477
4273.87815	0.18345
4271.94950	0.18245
4270.02085	0.18183
4268.09221	0.18154
4266.16356	0.18146
4264.23492	0.18154
4262.30627	0.18179
4260.37763	0.18205
4258.44898	0.18209
4256.52034	0.18204
4254.59169	0.18246
4252.66305	0.18398
4250.73440	0.18691
4248.80576	0.19088
4246.87711	0.19483
4244.94846	0.19735
4243.01982	0.19753
4241.09117	0.19546
4239.16253	0.19211
4237.23388	0.18885
4235.30524	0.18684
4233.37659	0.18633
4231.44795	0.18670
4229.51930	0.18716
4227.59066	0.18731
4225.66201	0.18709
4223.73337	0.18657
4221.80472	0.18589
4219.87607	0.18516
4217.94743	0.18426
4216.01878	0.18309
4214.09014	0.18189
4212.16149	0.18113
4210.23285	0.18104
4208.30420	0.18153
4206.37556	0.18237
4204.44691	0.18320
4202.51827	0.18333
4200.58962	0.18214
4198.66098	0.17960
4196.73233	0.17635
4194.80368	0.17333
4192.87504	0.17143
4190.94639	0.17133
4189.01775	0.17301
4187.08910	0.17562
4185.16046	0.17793
4183.23181	0.17913
4181.30317	0.17912
4179.37452	0.17836
4177.44588	0.17744
4175.51723	0.17686
4173.58859	0.17695
4171.65994	0.17785
4169.73130	0.17946
4167.80265	0.18155
4165.87400	0.18376
4163.94536	0.18547
4162.01671	0.18587
4160.08807	0.18437
4158.15942	0.18108
4156.23078	0.17700
4154.30213	0.17367
4152.37349	0.17230
4150.44484	0.17325
4148.51620	0.17595
4146.58755	0.17932
4144.65891	0.18210
4142.73026	0.18337
4140.80161	0.18292
4138.87297	0.18112
4136.94432	0.17847
4135.01568	0.17538
4133.08703	0.17241
4131.15839	0.17027
4129.22974	0.16941
4127.30110	0.16976
4125.37245	0.17095
4123.44381	0.17253
4121.51516	0.17391
4119.58652	0.17453
4117.65787	0.17438
4115.72922	0.17389
4113.80058	0.17349
4111.87193	0.17325
4109.94329	0.17304
4108.01464	0.17281
4106.08600	0.17243
4104.15735	0.17179
4102.22871	0.17104
4100.30006	0.17063
4098.37142	0.17090
4096.44277	0.17195
4094.51413	0.17375
4092.58548	0.17630
4090.65683	0.17945
4088.72819	0.18269
4086.79954	0.18520
4084.87090	0.18632
4082.94225	0.18597
4081.01361	0.18472
4079.08496	0.18334
4077.15632	0.18246
4075.22767	0.18212
4073.29903	0.18167
4071.37038	0.18015
4069.44174	0.17731
4067.51309	0.17396
4065.58444	0.17154
4063.65580	0.17109
4061.72715	0.17263
4059.79851	0.17518
4057.86986	0.17745
4055.94122	0.17853
4054.01257	0.17846
4052.08393	0.17802
4050.15528	0.17814
4048.22664	0.17920
4046.29799	0.18075
4044.36935	0.18196
4042.44070	0.18225
4040.51206	0.18156
4038.58341	0.18026
4036.65476	0.17896
4034.72612	0.17817
4032.79747	0.17806
4030.86883	0.17835
4028.94018	0.17851
4027.01154	0.17819
4025.08289	0.17740
4023.15425	0.17643
4021.22560	0.17567
4019.29696	0.17549
4017.36831	0.17610
4015.43967	0.17730
4013.51102	0.17853
4011.58237	0.17926
4009.65373	0.17921
4007.72508	0.17830
4005.79644	0.17660
4003.86779	0.17439
4001.93915	0.17209
4000.01050	0.17012
3998.08186	0.16871
3996.15321	0.16796
3994.22457	0.16790
3992.29592	0.16849
3990.36728	0.16954
3988.43863	0.17075
3986.50998	0.17181
3984.58134	0.17243
3982.65269	0.17246
3980.72405	0.17177
3978.79540	0.17059
3976.86676	0.16932
3974.93811	0.16830
3973.00947	0.16775
3971.08082	0.16772
3969.15218	0.16807
3967.22353	0.16858
3965.29489	0.16898
3963.36624	0.16906
3961.43759	0.16876
3959.50895	0.16817
3957.58030	0.16757
3955.65166	0.16736
3953.72301	0.16780
3951.79437	0.16887
3949.86572	0.17025
3947.93708	0.17148
3946.00843	0.17219
3944.07979	0.17221
3942.15114	0.17157
3940.22250	0.17045
3938.29385	0.16906
3936.36521	0.16763
3934.43656	0.16632
3932.50791	0.16529
3930.57927	0.16472
3928.65062	0.16476
3926.72198	0.16541
3924.79333	0.16655
3922.86469	0.16792
3920.93604	0.16929
3919.00740	0.17043
3917.07875	0.17121
3915.15011	0.17159
3913.22146	0.17165
3911.29282	0.17157
3909.36417	0.17147
3907.43552	0.17140
3905.50688	0.17130
3903.57823	0.17104
3901.64959	0.17046
3899.72094	0.16950
3897.79230	0.16827
3895.86365	0.16708
3893.93501	0.16634
3892.00636	0.16633
3890.07772	0.16713
3888.14907	0.16855
3886.22043	0.17021
3884.29178	0.17169
3882.36313	0.17279
3880.43449	0.17355
3878.50584	0.17418
3876.57720	0.17482
3874.64855	0.17546
3872.71991	0.17585
3870.79126	0.17565
3868.86262	0.17468
3866.93397	0.17318
3865.00533	0.17181
3863.07668	0.17132
3861.14804	0.17214
3859.21939	0.17407
3857.29074	0.17636
3855.36210	0.17795
3853.43345	0.17801
3851.50481	0.17647
3849.57616	0.17406
3847.64752	0.17189
3845.71887	0.17080
3843.79023	0.17093
3841.86158	0.17171
3839.93294	0.17215
3838.00429	0.17137
3836.07565	0.16914
3834.14700	0.16589
3832.21835	0.16251
3830.28971	0.15976
3828.36106	0.15807
3826.43242	0.15740
3824.50377	0.15737
3822.57513	0.15746
3820.64648	0.15734
3818.71784	0.15692
3816.78919	0.15642
3814.86055	0.15613
3812.93190	0.15638
3811.00326	0.15734
3809.07461	0.15890
3807.14597	0.16066
3805.21732	0.16215
3803.28867	0.16305
3801.36003	0.16333
3799.43138	0.16322
3797.50274	0.16312
3795.57409	0.16337
3793.64545	0.16397
3791.71680	0.16456
3789.78816	0.16465
3787.85951	0.16391
3785.93087	0.16236
3784.00222	0.16042
3782.07358	0.15871
3780.14493	0.15780
3778.21628	0.15793
3776.28764	0.15888
3774.35899	0.16013
3772.43035	0.16112
3770.50170	0.16138
3768.57306	0.16074
3766.64441	0.15929
3764.71577	0.15752
3762.78712	0.15605
3760.85848	0.15550
3758.92983	0.15619
3757.00119	0.15809
3755.07254	0.16077
3753.14389	0.16349
3751.21525	0.16551
3749.28660	0.16640
3747.35796	0.16625
3745.42931	0.16559
3743.50067	0.16515
3741.57202	0.16551
3739.64338	0.16677
3737.71473	0.16847
3735.78609	0.16967
3733.85744	0.16944
3731.92880	0.16737
3730.00015	0.16371
3728.07150	0.15932
3726.14286	0.15533
3724.21421	0.15272
3722.28557	0.15210
3720.35692	0.15357
3718.42828	0.15680
3716.49963	0.16119
3714.57099	0.16603
3712.64234	0.17065
3710.71370	0.17459
3708.78505	0.17778
3706.85641	0.18066
3704.92776	0.18395
3702.99911	0.18831
3701.07047	0.19403
3699.14182	0.20091
3697.21318	0.20825
3695.28453	0.21504
3693.35589	0.22028
3691.42724	0.22330
3689.49860	0.22392
3687.56995	0.22243
3685.64131	0.21959
3683.71266	0.21647
3681.78402	0.21422
3679.85537	0.21376
3677.92673	0.21552
3675.99808	0.21932
3674.06943	0.22455
3672.14079	0.23034
3670.21214	0.23595
3668.28350	0.24095
3666.35485	0.24543
3664.42621	0.24992
3662.49756	0.25511
3660.56892	0.26147
3658.64027	0.26910
3656.71163	0.27772
3654.78298	0.28681
3652.85434	0.29580
3650.92569	0.30439
3648.99704	0.31256
3647.06840	0.32038
3645.13975	0.32781
3643.21111	0.33469
3641.28246	0.34093
3639.35382	0.34673
3637.42517	0.35269
3635.49653	0.35963
3633.56788	0.36832
3631.63924	0.37909
3629.71059	0.39176
3627.78195	0.40562
3625.85330	0.41973
3623.92465	0.43325
3621.99601	0.44557
3620.06736	0.45635
3618.13872	0.46563
3616.21007	0.47388
3614.28143	0.48182
3612.35278	0.49018
3610.42414	0.49942
3608.49549	0.50963
3606.56685	0.52053
3604.63820	0.53163
3602.70956	0.54249
3600.78091	0.55302
3598.85226	0.56345
3596.92362	0.57414
3594.99497	0.58544
3593.06633	0.59744
3591.13768	0.60997
3589.20904	0.62258
3587.28039	0.63483
3585.35175	0.64659
3583.42310	0.65810
3581.49446	0.66993
3579.56581	0.68266
3577.63717	0.69655
3575.70852	0.71130
3573.77988	0.72617
3571.85123	0.74036
3569.92258	0.75335
3567.99394	0.76515
3566.06529	0.77615
3564.13665	0.78691
3562.20800	0.79781
3560.27936	0.80898
3558.35071	0.82036
3556.42207	0.83193
3554.49342	0.84389
3552.56478	0.85651
3550.63613	0.87002
3548.70749	0.88442
3546.77884	0.89945
3544.85019	0.91467
3542.92155	0.92970
3540.99290	0.94431
3539.06426	0.95847
3537.13561	0.97220
3535.20697	0.98545
3533.27832	0.99807
3531.34968	1.00988
3529.42103	1.02091
3527.49239	1.03143
3525.56374	1.04196
3523.63510	1.05307
3521.70645	1.06512
3519.77780	1.07814
3517.84916	1.09174
3515.92051	1.10529
3513.99187	1.11813
3512.06322	1.12982
3510.13458	1.14036
3508.20593	1.15013
3506.27729	1.15986
3504.34864	1.17032
3502.42000	1.18203
3500.49135	1.19509
3498.56271	1.20910
3496.63406	1.22325
3494.70541	1.23674
3492.77677	1.24897
3490.84812	1.25978
3488.91948	1.26937
3486.99083	1.27820
3485.06219	1.28673
3483.13354	1.29532
3481.20490	1.30416
3479.27625	1.31335
3477.34761	1.32297
3475.41896	1.33310
3473.49032	1.34379
3471.56167	1.35495
3469.63302	1.36629
3467.70438	1.37743
3465.77573	1.38805
3463.84709	1.39795
3461.91844	1.40712
3459.98980	1.41572
3458.06115	1.42403
3456.13251	1.43228
3454.20386	1.44050
3452.27522	1.44863
3450.34657	1.45658
3448.41793	1.46432
3446.48928	1.47187
3444.56064	1.47934
3442.63199	1.48690
3440.70334	1.49465
3438.77470	1.50255
3436.84605	1.51040
3434.91741	1.51799
3432.98876	1.52514
3431.06012	1.53182
3429.13147	1.53822
3427.20283	1.54469
3425.27418	1.55157
3423.34554	1.55895
3421.41689	1.56662
3419.48825	1.57412
3417.55960	1.58096
3415.63095	1.58685
3413.70231	1.59180
3411.77366	1.59614
3409.84502	1.60024
3407.91637	1.60433
3405.98773	1.60841
3404.05908	1.61234
3402.13044	1.61592
3400.20179	1.61904
3398.27315	1.62173
3396.34450	1.62413
3394.41586	1.62640
3392.48721	1.62871
3390.55856	1.63119
3388.62992	1.63386
3386.70127	1.63657
3384.77263	1.63899
3382.84398	1.64075
3380.91534	1.64154
3378.98669	1.64136
3377.05805	1.64056
3375.12940	1.63977
3373.20076	1.63958
3371.27211	1.64031
3369.34347	1.64187
3367.41482	1.64383
3365.48617	1.64569
3363.55753	1.64718
3361.62888	1.64831
3359.70024	1.64929
3357.77159	1.65035
3355.84295	1.65153
3353.91430	1.65265
3351.98566	1.65340
3350.05701	1.65362
3348.12837	1.65336
3346.19972	1.65289
3344.27108	1.65261
3342.34243	1.65285
3340.41378	1.65378
3338.48514	1.65528
3336.55649	1.65702
3334.62785	1.65853
3332.69920	1.65945
3330.77056	1.65960
3328.84191	1.65907
3326.91327	1.65819
3324.98462	1.65745
3323.05598	1.65735
3321.12733	1.65816
3319.19869	1.65994
3317.27004	1.66246
3315.34140	1.66534
3313.41275	1.66812
3311.48410	1.67045
3309.55546	1.67221
3307.62681	1.67345
3305.69817	1.67435
3303.76952	1.67510
3301.84088	1.67577
3299.91223	1.67636
3297.98359	1.67682
3296.05494	1.67707
3294.12630	1.67708
3292.19765	1.67675
3290.26901	1.67599
3288.34036	1.67471
3286.41171	1.67290
3284.48307	1.67064
3282.55442	1.66806
3280.62578	1.66527
3278.69713	1.66225
3276.76849	1.65884
3274.83984	1.65475
3272.91120	1.64963
3270.98255	1.64328
3269.05391	1.63568
3267.12526	1.62712
3265.19662	1.61811
3263.26797	1.60928
3261.33932	1.60115
3259.41068	1.59390
3257.48203	1.58725
3255.55339	1.58060
3253.62474	1.57331
3251.69610	1.56503
3249.76745	1.55593
3247.83881	1.54661
3245.91016	1.53785
3243.98152	1.53025
3242.05287	1.52391
3240.12423	1.51840
3238.19558	1.51301
3236.26693	1.50705
3234.33829	1.50016
3232.40964	1.49242
3230.48100	1.48439
3228.55235	1.47684
3226.62371	1.47044
3224.69506	1.46552
3222.76642	1.46187
3220.83777	1.45879
3218.90913	1.45531
3216.98048	1.45057
3215.05184	1.44412
3213.12319	1.43606
3211.19455	1.42690
3209.26590	1.41732
3207.33725	1.40797
3205.40861	1.39924
3203.47996	1.39123
3201.55132	1.38384
3199.62267	1.37689
3197.69403	1.37024
3195.76538	1.36377
3193.83674	1.35733
3191.90809	1.35077
3189.97945	1.34395
3188.05080	1.33674
3186.12216	1.32906
3184.19351	1.32095
3182.26486	1.31251
3180.33622	1.30384
3178.40757	1.29500
3176.47893	1.28600
3174.55028	1.27695
3172.62164	1.26808
3170.69299	1.25981
3168.76435	1.25247
3166.83570	1.24619
3164.90706	1.24078
3162.97841	1.23572
3161.04977	1.23036
3159.12112	1.22418
3157.19247	1.21703
3155.26383	1.20912
3153.33518	1.20081
3151.40654	1.19240
3149.47789	1.18405
3147.54925	1.17574
3145.62060	1.16745
3143.69196	1.15927
3141.76331	1.15139
3139.83467	1.14407
3137.90602	1.13746
3135.97738	1.13148
3134.04873	1.12591
3132.12008	1.12051
3130.19144	1.11513
3128.26279	1.10972
3126.33415	1.10425
3124.40550	1.09866
3122.47686	1.09285
3120.54821	1.08669
3118.61957	1.08007
3116.69092	1.07301
3114.76228	1.06573
3112.83363	1.05857
3110.90499	1.05186
3108.97634	1.04591
3107.04769	1.04091
3105.11905	1.03687
3103.19040	1.03357
3101.26176	1.03066
3099.33311	1.02777
3097.40447	1.02465
3095.47582	1.02119
3093.54718	1.01739
3091.61853	1.01336
3089.68989	1.00918
3087.76124	1.00490
3085.83260	1.00047
3083.90395	0.99586
3081.97531	0.99115
3080.04666	0.98656
3078.11801	0.98236
3076.18937	0.97880
3074.26072	0.97592
3072.33208	0.97351
3070.40343	0.97109
3068.47479	0.96805
3066.54614	0.96388
3064.61750	0.95833
3062.68885	0.95151
3060.76021	0.94375
3058.83156	0.93552
3056.90292	0.92724
3054.97427	0.91925
3053.04562	0.91181
3051.11698	0.90510
3049.18833	0.89922
3047.25969	0.89415
3045.33104	0.88969
3043.40240	0.88540
3041.47375	0.88075
3039.54511	0.87534
3037.61646	0.86903
3035.68782	0.86210
3033.75917	0.85504
3031.83053	0.84835
3029.90188	0.84235
3027.97323	0.83700
3026.04459	0.83208
3024.11594	0.82735
3022.18730	0.82274
3020.25865	0.81839
3018.33001	0.81446
3016.40136	0.81100
3014.47272	0.80790
3012.54407	0.80501
3010.61543	0.80230
3008.68678	0.79983
3006.75814	0.79771
3004.82949	0.79603
3002.90084	0.79470
3000.97220	0.79355
2999.04355	0.79237
2997.11491	0.79115
2995.18626	0.79017
2993.25762	0.78977
2991.32897	0.79010
2989.40033	0.79107
2987.47168	0.79251
2985.54304	0.79434
2983.61439	0.79666
2981.68575	0.79976
2979.75710	0.80405
2977.82845	0.80983
2975.89981	0.81701
2973.97116	0.82498
2972.04252	0.83293
2970.11387	0.84019
2968.18523	0.84640
2966.25658	0.85142
2964.32794	0.85531
2962.39929	0.85819
2960.47065	0.85998
2958.54200	0.86035
2956.61336	0.85896
2954.68471	0.85591
2952.75607	0.85187
2950.82742	0.84792
2948.89877	0.84521
2946.97013	0.84461
2945.04148	0.84634
2943.11284	0.85005
2941.18419	0.85516
2939.25555	0.86124
2937.32690	0.86808
2935.39826	0.87558
2933.46961	0.88358
2931.54097	0.89162
2929.61232	0.89886
2927.68368	0.90429
2925.75503	0.90700
2923.82638	0.90623
2921.89774	0.90142
2919.96909	0.89230
2918.04045	0.87905
2916.11180	0.86248
2914.18316	0.84393
2912.25451	0.82504
2910.32587	0.80730
2908.39722	0.79173
2906.46858	0.77869
2904.53993	0.76800
2902.61129	0.75918
2900.68264	0.75169
2898.75399	0.74507
2896.82535	0.73892
2894.89670	0.73286
2892.96806	0.72676
2891.03941	0.72074
2889.11077	0.71509
2887.18212	0.71008
2885.25348	0.70589
2883.32483	0.70250
2881.39619	0.69972
2879.46754	0.69718
2877.53890	0.69452
2875.61025	0.69151
2873.68160	0.68802
2871.75296	0.68410
2869.82431	0.68000
2867.89567	0.67623
2865.96702	0.67346
2864.03838	0.67236
2862.10973	0.67340
2860.18109	0.67653
2858.25244	0.68103
2856.32380	0.68549
2854.39515	0.68797
2852.46651	0.68657
2850.53786	0.68012
2848.60922	0.66875
2846.68057	0.65390
2844.75192	0.63780
2842.82328	0.62272
2840.89463	0.61021
2838.96599	0.60069
2837.03734	0.59361
2835.10870	0.58790
2833.18005	0.58263
2831.25141	0.57732
2829.32276	0.57192
2827.39412	0.56665
2825.46547	0.56174
2823.53683	0.55739
2821.60818	0.55369
2819.67953	0.55056
2817.75089	0.54783
2815.82224	0.54530
2813.89360	0.54277
2811.96495	0.54013
2810.03631	0.53731
2808.10766	0.53438
2806.17902	0.53136
2804.25037	0.52831
2802.32173	0.52524
2800.39308	0.52225
2798.46444	0.51952
2796.53579	0.51726
2794.60714	0.51545
2792.67850	0.51384
2790.74985	0.51199
2788.82121	0.50961
2786.89256	0.50662
2784.96392	0.50327
2783.03527	0.49998
2781.10663	0.49708
2779.17798	0.49469
2777.24934	0.49266
2775.32069	0.49076
2773.39205	0.48883
2771.46340	0.48677
2769.53475	0.48457
2767.60611	0.48229
2765.67746	0.48004
2763.74882	0.47799
2761.82017	0.47630
2759.89153	0.47495
2757.96288	0.47378
2756.03424	0.47256
2754.10559	0.47109
2752.17695	0.46927
2750.24830	0.46719
2748.31966	0.46516
2746.39101	0.46342
2744.46236	0.46197
2742.53372	0.46058
2740.60507	0.45912
2738.67643	0.45751
2736.74778	0.45571
2734.81914	0.45375
2732.89049	0.45177
2730.96185	0.44984
2729.03320	0.44788
2727.10456	0.44577
2725.17591	0.44356
2723.24727	0.44149
2721.31862	0.43983
2719.38998	0.43864
2717.46133	0.43785
2715.53268	0.43724
2713.60404	0.43656
2711.67539	0.43554
2709.74675	0.43409
2707.81810	0.43226
2705.88946	0.43019
2703.96081	0.42803
2702.03217	0.42596
2700.10352	0.42416
2698.17488	0.42277
2696.24623	0.42178
2694.31759	0.42102
2692.38894	0.42020
2690.46029	0.41908
2688.53165	0.41768
2686.60300	0.41614
2684.67436	0.41464
2682.74571	0.41321
2680.81707	0.41172
2678.88842	0.40994
2676.95978	0.40766
2675.03113	0.40482
2673.10249	0.40160
2671.17384	0.39848
2669.24520	0.39600
2667.31655	0.39447
2665.38790	0.39386
2663.45926	0.39385
2661.53061	0.39391
2659.60197	0.39347
2657.67332	0.39225
2655.74468	0.39042
2653.81603	0.38831
2651.88739	0.38615
2649.95874	0.38395
2648.03010	0.38165
2646.10145	0.37928
2644.17281	0.37702
2642.24416	0.37512
2640.31551	0.37374
2638.38687	0.37281
2636.45822	0.37197
2634.52958	0.37088
2632.60093	0.36949
2630.67229	0.36801
2628.74364	0.36667
2626.81500	0.36540
2624.88635	0.36399
2622.95771	0.36221
2621.02906	0.36006
2619.10042	0.35782
2617.17177	0.35592
2615.24312	0.35452
2613.31448	0.35332
2611.38583	0.35185
2609.45719	0.34987
2607.52854	0.34759
2605.59990	0.34559
2603.67125	0.34445
2601.74261	0.34430
2599.81396	0.34472
2597.88532	0.34501
2595.95667	0.34468
2594.02803	0.34364
2592.09938	0.34224
2590.17074	0.34084
2588.24209	0.33951
2586.31344	0.33805
2584.38480	0.33630
2582.45615	0.33436
2580.52751	0.33251
2578.59886	0.33102
2576.67022	0.32999
2574.74157	0.32926
2572.81293	0.32847
2570.88428	0.32752
2568.95564	0.32677
2567.02699	0.32684
2565.09835	0.32804
2563.16970	0.33014
2561.24105	0.33246
2559.31241	0.33413
2557.38376	0.33436
2555.45512	0.33288
2553.52647	0.33012
2551.59783	0.32680
2549.66918	0.32338
2547.74054	0.32006
2545.81189	0.31695
2543.88325	0.31418
2541.95460	0.31192
2540.02596	0.31036
2538.09731	0.30964
2536.16866	0.30963
2534.24002	0.30987
2532.31137	0.30989
2530.38273	0.30949
2528.45408	0.30877
2526.52544	0.30809
2524.59679	0.30778
2522.66815	0.30794
2520.73950	0.30845
2518.81086	0.30920
2516.88221	0.31006
2514.95357	0.31069
2513.02492	0.31070
2511.09627	0.30983
2509.16763	0.30810
2507.23898	0.30575
2505.31034	0.30344
2503.38169	0.30210
2501.45305	0.30246
2499.52440	0.30444
2497.59576	0.30722
2495.66711	0.30970
2493.73847	0.31106
2491.80982	0.31101
2489.88118	0.30979
2487.95253	0.30808
2486.02389	0.30644
2484.09524	0.30494
2482.16659	0.30336
2480.23795	0.30158
2478.30930	0.29985
2476.38066	0.29856
2474.45201	0.29799
2472.52337	0.29817
2470.59472	0.29874
2468.66608	0.29907
2466.73743	0.29880
2464.80879	0.29813
2462.88014	0.29760
2460.95150	0.29767
2459.02285	0.29855
2457.09420	0.29993
2455.16556	0.30109
2453.23691	0.30125
2451.30827	0.30002
2449.37962	0.29761
2447.45098	0.29458
2445.52233	0.29178
2443.59369	0.29004
2441.66504	0.28976
2439.73640	0.29076
2437.80775	0.29254
2435.87911	0.29440
2433.95046	0.29570
2432.02181	0.29610
2430.09317	0.29566
2428.16452	0.29468
2426.23588	0.29347
2424.30723	0.29232
2422.37859	0.29151
2420.44994	0.29133
2418.52130	0.29192
2416.59265	0.29319
2414.66401	0.29472
2412.73536	0.29588
2410.80672	0.29608
2408.87807	0.29505
2406.94942	0.29305
2405.02078	0.29079
2403.09213	0.28898
2401.16349	0.28802
2399.23484	0.28793
2397.30620	0.28852
2395.37755	0.28956
2393.44891	0.29079
2391.52026	0.29208
2389.59162	0.29337
2387.66297	0.29464
2385.73433	0.29594
2383.80568	0.29737
2381.87703	0.29911
2379.94839	0.30121
2378.01974	0.30353
2376.09110	0.30575
2374.16245	0.30728
2372.23381	0.30729
2370.30516	0.30505
2368.37652	0.30034
2366.44787	0.29371
2364.51923	0.28643
2362.59058	0.28024
2360.66194	0.27666
2358.73329	0.27626
2356.80465	0.27825
2354.87600	0.28104
2352.94735	0.28317
2351.01871	0.28399
2349.09006	0.28395
2347.16142	0.28411
2345.23277	0.28518
2343.30413	0.28703
2341.37548	0.28867
2339.44684	0.28882
2337.51819	0.28683
2335.58955	0.28306
2333.66090	0.27890
2331.73226	0.27605
2329.80361	0.27566
2327.87496	0.27791
2325.94632	0.28199
2324.01767	0.28653
2322.08903	0.29009
2320.16038	0.29160
2318.23174	0.29073
2316.30309	0.28797
2314.37445	0.28427
2312.44580	0.28075
2310.51716	0.27832
2308.58851	0.27750
2306.65987	0.27822
2304.73122	0.27993
2302.80257	0.28176
2300.87393	0.28294
2298.94528	0.28294
2297.01664	0.28165
2295.08799	0.27932
2293.15935	0.27647
2291.23070	0.27371
2289.30206	0.27145
2287.37341	0.26980
2285.44477	0.26855
2283.51612	0.26722
2281.58748	0.26532
2279.65883	0.26253
2277.73018	0.25893
2275.80154	0.25500
2273.87289	0.25161
2271.94425	0.24969
2270.01560	0.24982
2268.08696	0.25184
2266.15831	0.25470
2264.22967	0.25691
2262.30102	0.25720
2260.37238	0.25530
2258.44373	0.25191
2256.51509	0.24824
2254.58644	0.24546
2252.65779	0.24424
2250.72915	0.24442
2248.80050	0.24509
2246.87186	0.24530
2244.94321	0.24464
2243.01457	0.24269
2241.08592	0.23886
2239.15728	0.23300
2237.22863	0.22569
2235.29999	0.21800
2233.37134	0.21131
2231.44270	0.20757
2229.51405	0.20852
2227.58541	0.21450
2225.65676	0.22439
2223.72811	0.23606
2221.79947	0.24630
2219.87082	0.25130
2217.94218	0.24865
2216.01353	0.23929
2214.08489	0.22713
2212.15624	0.21692
2210.22760	0.21226
2208.29895	0.21388
2206.37031	0.21864
2204.44166	0.22094
2202.51302	0.21649
2200.58437	0.20536
2198.65572	0.19149
2196.72708	0.18003
2194.79843	0.17483
2192.86979	0.17619
2190.94114	0.18015
2189.01250	0.18115
2187.08385	0.17613
2185.15521	0.16632
2183.22656	0.15621
2181.29792	0.15173
2179.36927	0.15724
2177.44063	0.17164
2175.51198	0.18760
2173.58333	0.19577
2171.65469	0.18931
2169.72604	0.16565
2167.79740	0.12718
2165.86875	0.08143
2163.94011	0.03907
2162.01146	0.00996
2160.08282	0.00000
2158.15417	0.01034
2156.22553	0.03742
2154.29688	0.07370
2152.36824	0.10994
2150.43959	0.13849
2148.51094	0.15628
2146.58230	0.16504
2144.65365	0.16826
2142.72501	0.16850
2140.79636	0.16740
2138.86772	0.16624
2136.93907	0.16570
2135.01043	0.16639
2133.08178	0.16962
2131.15314	0.17645
2129.22449	0.18598
2127.29585	0.19560
2125.36720	0.20308
2123.43856	0.20777
2121.50991	0.21015
2119.58126	0.21137
2117.65262	0.21271
2115.72397	0.21437
2113.79533	0.21506
2111.86668	0.21295
2109.93804	0.20728
2108.00939	0.19916
2106.08075	0.19108
2104.15210	0.18552
2102.22346	0.18384
2100.29481	0.18579
2098.36617	0.18969
2096.43752	0.19353
2094.50887	0.19592
2092.58023	0.19648
2090.65158	0.19541
2088.72294	0.19303
2086.79429	0.18983
2084.86565	0.18660
2082.93700	0.18439
2081.00836	0.18409
2079.07971	0.18586
2077.15107	0.18891
2075.22242	0.19180
2073.29378	0.19330
2071.36513	0.19287
2069.43648	0.19081
2067.50784	0.18793
2065.57919	0.18521
2063.65055	0.18352
2061.72190	0.18335
2059.79326	0.18474
2057.86461	0.18718
2055.93597	0.18945
2054.00732	0.18975
2052.07868	0.18634
2050.15003	0.17840
2048.22139	0.16648
2046.29274	0.15249
2044.36409	0.13931
2042.43545	0.12989
2040.50680	0.12612
2038.57816	0.12817
2036.64951	0.13450
2034.72087	0.14247
2032.79222	0.14911
2030.86358	0.15229
2028.93493	0.15148
2027.00629	0.14784
2025.07764	0.14342
2023.14900	0.14028
2021.22035	0.13972
2019.29170	0.14204
2017.36306	0.14691
2015.43441	0.15386
2013.50577	0.16259
2011.57712	0.17284
2009.64848	0.18416
2007.71983	0.19523
2005.79119	0.20476
2003.86254	0.21091
2001.93390	0.21223
2000.00525	0.20845
1998.07661	0.20062
1996.14796	0.19087
1994.21932	0.18154
1992.29067	0.17424
1990.36202	0.16930
1988.43338	0.16621
1986.50473	0.16449
1984.57609	0.16427
1982.64744	0.16627
1980.71880	0.17142
1978.79015	0.17997
1976.86151	0.19071
1974.93286	0.20108
1973.00422	0.20830
1971.07557	0.21056
1969.14693	0.20746
1967.21828	0.19996
1965.28963	0.19021
1963.36099	0.18104
1961.43234	0.17494
1959.50370	0.17323
1957.57505	0.17589
1955.64641	0.18188
1953.71776	0.18965
1951.78912	0.19769
1949.86047	0.20498
1947.93183	0.21103
1946.00318	0.21535
1944.07454	0.21704
1942.14589	0.21516
1940.21724	0.20949
1938.28860	0.20115
1936.35995	0.19239
1934.43131	0.18564
1932.50266	0.18250
1930.57402	0.18320
1928.64537	0.18678
1926.71673	0.19190
1924.78808	0.19750
1922.85944	0.20292
1920.93079	0.20776
1919.00215	0.21157
1917.07350	0.21386
1915.14485	0.21436
1913.21621	0.21327
1911.28756	0.21122
1909.35892	0.20895
1907.43027	0.20702
1905.50163	0.20559
1903.57298	0.20459
1901.64434	0.20390
1899.71569	0.20344
1897.78705	0.20317
1895.85840	0.20304
1893.92976	0.20295
1892.00111	0.20287
1890.07246	0.20282
1888.14382	0.20296
1886.21517	0.20344
1884.28653	0.20423
1882.35788	0.20510
1880.42924	0.20571
1878.50059	0.20577
1876.57195	0.20519
1874.64330	0.20417
1872.71466	0.20305
1870.78601	0.20218
1868.85737	0.20171
1866.92872	0.20166
1865.00008	0.20198
1863.07143	0.20260
1861.14278	0.20334
1859.21414	0.20392
1857.28549	0.20407
1855.35685	0.20363
1853.42820	0.20266
1851.49956	0.20146
1849.57091	0.20049
1847.64227	0.20013
1845.71362	0.20047
1843.78498	0.20131
1841.85633	0.20233
1839.92769	0.20330
1837.99904	0.20410
1836.07039	0.20470
1834.14175	0.20512
1832.21310	0.20543
1830.28446	0.20568
1828.35581	0.20595
1826.42717	0.20632
1824.49852	0.20681
1822.56988	0.20734
1820.64123	0.20773
1818.71259	0.20778
1816.78394	0.20733
1814.85530	0.20639
1812.92665	0.20508
1810.99800	0.20368
1809.06936	0.20247
1807.14071	0.20170
1805.21207	0.20157
1803.28342	0.20215
1801.35478	0.20333
1799.42613	0.20486
1797.49749	0.20643
1795.56884	0.20785
1793.64020	0.20902
1791.71155	0.21002
1789.78291	0.21104
1787.85426	0.21226
1785.92561	0.21373
1783.99697	0.21544
1782.06832	0.21726
1780.13968	0.21912
1778.21103	0.22096
1776.28239	0.22275
1774.35374	0.22449
1772.42510	0.22618
1770.49645	0.22784
1768.56781	0.22956
1766.63916	0.23158
1764.71052	0.23416
1762.78187	0.23757
1760.85322	0.24192
1758.92458	0.24712
1756.99593	0.25298
1755.06729	0.25925
1753.13864	0.26583
1751.21000	0.27275
1749.28135	0.28012
1747.35271	0.28806
1745.42406	0.29664
1743.49542	0.30575
1741.56677	0.31511
1739.63813	0.32435
1737.70948	0.33305
1735.78084	0.34086
1733.85219	0.34759
1731.92354	0.35340
1729.99490	0.35893
1728.06625	0.36511
1726.13761	0.37282
1724.20896	0.38255
1722.28032	0.39412
1720.35167	0.40675
1718.42303	0.41930
1716.49438	0.43084
1714.56574	0.44105
1712.63709	0.45042
1710.70845	0.46007
1708.77980	0.47128
1706.85115	0.48510
1704.92251	0.50206
1702.99386	0.52205
1701.06522	0.54449
1699.13657	0.56867
1697.20793	0.59417
1695.27928	0.62104
1693.35064	0.64970
1691.42199	0.68062
1689.49335	0.71392
1687.56470	0.74923
1685.63606	0.78575
1683.70741	0.82257
1681.77876	0.85912
1679.85012	0.89535
1677.92147	0.93164
1675.99283	0.96846
1674.06418	1.00621
1672.13554	1.04500
1670.20689	1.08476
1668.27825	1.12519
1666.34960	1.16597
1664.42096	1.20668
1662.49231	1.24668
1660.56367	1.28495
1658.63502	1.32015
1656.70637	1.35083
1654.77773	1.37565
1652.84908	1.39372
1650.92044	1.40499
1648.99179	1.41034
1647.06315	1.41127
1645.13450	1.40942
1643.20586	1.40609
1641.27721	1.40187
1639.34857	1.39652
1637.41992	1.38920
1635.49128	1.37887
1633.56263	1.36473
1631.63399	1.34641
1629.70534	1.32408
1627.77669	1.29842
1625.84805	1.27048
1623.91940	1.24145
1621.99076	1.21251
1620.06211	1.18464
1618.13347	1.15848
1616.20482	1.13437
1614.27618	1.11239
1612.34753	1.09248
1610.41889	1.07449
1608.49024	1.05826
1606.56160	1.04357
1604.63295	1.03018
1602.70430	1.01776
1600.77566	1.00597
1598.84701	0.99446
1596.91837	0.98292
1594.98972	0.97116
1593.06108	0.95917
1591.13243	0.94715
1589.20379	0.93552
1587.27514	0.92485
1585.34650	0.91570
1583.41785	0.90839
1581.48921	0.90292
1579.56056	0.89893
1577.63191	0.89587
1575.70327	0.89319
1573.77462	0.89062
1571.84598	0.88839
1569.91733	0.88714
1567.98869	0.88767
1566.06004	0.89050
1564.13140	0.89561
1562.20275	0.90236
1560.27411	0.90954
1558.34546	0.91589
1556.41682	0.92053
1554.48817	0.92319
1552.55952	0.92409
1550.63088	0.92361
1548.70223	0.92188
1546.77359	0.91859
1544.84494	0.91302
1542.91630	0.90438
1540.98765	0.89222
1539.05901	0.87675
1537.13036	0.85883
1535.20172	0.83983
1533.27307	0.82120
1531.34443	0.80412
1529.41578	0.78927
1527.48713	0.77666
1525.55849	0.76570
1523.62984	0.75531
1521.70120	0.74426
1519.77255	0.73149
1517.84391	0.71640
1515.91526	0.69888
1513.98662	0.67927
1512.05797	0.65818
1510.12933	0.63630
1508.20068	0.61430
1506.27204	0.59277
1504.34339	0.57229
1502.41475	0.55338
1500.48610	0.53633
1498.55745	0.52113
1496.62881	0.50746
1494.70016	0.49489
1492.77152	0.48299
1490.84287	0.47158
1488.91423	0.46074
1486.98558	0.45093
1485.05694	0.44291
1483.12829	0.43764
1481.19965	0.43606
1479.27100	0.43888
1477.34236	0.44628
1475.41371	0.45773
1473.48506	0.47196
1471.55642	0.48729
1469.62777	0.50217
1467.69913	0.51553
1465.77048	0.52689
1463.84184	0.53624
1461.91319	0.54376
1459.98455	0.54952
1458.05590	0.55335
1456.12726	0.55499
1454.19861	0.55429
1452.26997	0.55148
1450.34132	0.54706
1448.41267	0.54170
1446.48403	0.53616
1444.55538	0.53112
1442.62674	0.52708
1440.69809	0.52432
1438.76945	0.52303
1436.84080	0.52327
1434.91216	0.52512
1432.98351	0.52876
1431.05487	0.53448
1429.12622	0.54255
1427.19758	0.55302
1425.26893	0.56558
1423.34028	0.57956
1421.41164	0.59396
1419.48299	0.60779
1417.55435	0.62029
1415.62570	0.63115
1413.69706	0.64040
1411.76841	0.64827
1409.83977	0.65498
1407.91112	0.66060
1405.98248	0.66503
1404.05383	0.66803
1402.12519	0.66935
1400.19654	0.66892
1398.26789	0.66684
1396.33925	0.66338
1394.41060	0.65891
1392.48196	0.65384
1390.55331	0.64851
1388.62467	0.64311
1386.69602	0.63769
1384.76738	0.63221
1382.83873	0.62661
1380.91009	0.62079
1378.98144	0.61468
1377.05280	0.60820
1375.12415	0.60126
1373.19551	0.59378
1371.26686	0.58578
1369.33821	0.57740
1367.40957	0.56891
1365.48092	0.56070
1363.55228	0.55315
1361.62363	0.54655
1359.69499	0.54097
1357.76634	0.53629
1355.83770	0.53222
1353.90905	0.52837
1351.98041	0.52443
1350.05176	0.52021
1348.12312	0.51576
1346.19447	0.51125
1344.26582	0.50691
1342.33718	0.50290
1340.40853	0.49932
1338.47989	0.49609
1336.55124	0.49312
1334.62260	0.49028
1332.69395	0.48751
1330.76531	0.48479
1328.83666	0.48222
1326.90802	0.47994
1324.97937	0.47810
1323.05073	0.47682
1321.12208	0.47605
1319.19343	0.47558
1317.26479	0.47515
1315.33614	0.47448
1313.40750	0.47346
1311.47885	0.47213
1309.55021	0.47068
1307.62156	0.46930
1305.69292	0.46813
1303.76427	0.46718
1301.83563	0.46642
1299.90698	0.46583
1297.97834	0.46547
1296.04969	0.46541
1294.12104	0.46571
1292.19240	0.46636
1290.26375	0.46728
1288.33511	0.46834
1286.40646	0.46947
1284.47782	0.47071
1282.54917	0.47224
1280.62053	0.47438
1278.69188	0.47749
1276.76324	0.48200
1274.83459	0.48825
1272.90595	0.49640
1270.97730	0.50630
1269.04866	0.51738
1267.12001	0.52871
1265.19136	0.53910
1263.26272	0.54742
1261.33407	0.55296
1259.40543	0.55562
1257.47678	0.55597
1255.54814	0.55503
1253.61949	0.55395
1251.69085	0.55364
1249.76220	0.55456
1247.83356	0.55671
1245.90491	0.55976
1243.97627	0.56326
1242.04762	0.56681
1240.11897	0.57016
1238.19033	0.57312
1236.26168	0.57553
1234.33304	0.57728
1232.40439	0.57831
1230.47575	0.57866
1228.54710	0.57843
1226.61846	0.57780
1224.68981	0.57696
1222.76117	0.57604
1220.83252	0.57517
1218.90388	0.57444
1216.97523	0.57396
1215.04658	0.57386
1213.11794	0.57420
1211.18929	0.57497
1209.26065	0.57601
1207.33200	0.57707
1205.40336	0.57793
1203.47471	0.57855
1201.54607	0.57905
1199.61742	0.57976
1197.68878	0.58123
1195.76013	0.58401
1193.83149	0.58841
1191.90284	0.59446
1189.97419	0.60211
1188.04555	0.61131
1186.11690	0.62197
1184.18826	0.63411
1182.25961	0.64785
1180.33097	0.66322
1178.40232	0.68001
1176.47368	0.69797
1174.54503	0.71702
1172.61639	0.73711
1170.68774	0.75805
1168.75910	0.77946
1166.83045	0.80070
1164.90180	0.82098
1162.97316	0.83971
1161.04451	0.85686
1159.11587	0.87301
1157.18722	0.88907
1155.25858	0.90584
1153.32993	0.92365
1151.40129	0.94229
1149.47264	0.96134
1147.54400	0.98071
1145.61535	1.00082
1143.68671	1.02249
1141.75806	1.04664
1139.82942	1.07387
1137.90077	1.10427
1135.97212	1.13740
1134.04348	1.17259
1132.11483	1.20919
1130.18619	1.24646
1128.25754	1.28366
1126.32890	1.32016
1124.40025	1.35573
1122.47161	1.39045
1120.54296	1.42469
1118.61432	1.45880
1116.68567	1.49271
1114.75703	1.52594
1112.82838	1.55805
1110.89973	1.58913
1108.97109	1.61968
1107.04244	1.65023
1105.11380	1.68111
1103.18515	1.71234
1101.25651	1.74357
1099.32786	1.77441
1097.39922	1.80489
1095.47057	1.83541
1093.54193	1.86606
1091.61328	1.89627
1089.68464	1.92485
1087.75599	1.95035
1085.82734	1.97136
1083.89870	1.98691
1081.97005	1.99652
1080.04141	2.00000
1078.11276	1.99725
1076.18412	1.98812
1074.25547	1.97250
1072.32683	1.95051
1070.39818	1.92285
1068.46954	1.89076
1066.54089	1.85582
1064.61225	1.81963
1062.68360	1.78365
1060.75495	1.74898
1058.82631	1.71626
1056.89766	1.68577
1054.96902	1.65755
1053.04037	1.63168
1051.11173	1.60839
1049.18308	1.58817
1047.25444	1.57164
1045.32579	1.55946
1043.39715	1.55202
1041.46850	1.54903
1039.53986	1.54926
1037.61121	1.55051
1035.68256	1.54982
1033.75392	1.54391
1031.82527	1.53011
1029.89663	1.50724
1027.96798	1.47622
1026.03934	1.43998
1024.11069	1.40259
1022.18205	1.36804
1020.25340	1.33889
1018.32476	1.31575
1016.39611	1.29744
1014.46747	1.28150
1012.53882	1.26500
1010.61018	1.24536
1008.68153	1.22099
1006.75288	1.19150
1004.82424	1.15766
1002.89559	1.12129
1000.96695	1.08487
999.03830	1.05083
997.10966	1.02093
995.18101	0.99595
993.25237	0.97575
991.32372	0.95938
989.39508	0.94551
987.46643	0.93263
985.53779	0.91930
983.60914	0.90415
981.68049	0.88600
979.75185	0.86419
977.82320	0.83875
975.89456	0.81048
973.96591	0.78085
972.03727	0.75158
970.10862	0.72392
968.17998	0.69813
966.25133	0.67359
964.32269	0.64956
962.39404	0.62576
960.46540	0.60256
958.53675	0.58080
956.60810	0.56150
954.67946	0.54522
952.75081	0.53183
950.82217	0.52078
948.89352	0.51176
946.96488	0.50484
945.03623	0.50011
943.10759	0.49715
941.17894	0.49494
939.25030	0.49227
937.32165	0.48818
935.39301	0.48257
933.46436	0.47643
931.53571	0.47137
929.60707	0.46866
927.67842	0.46868
925.74978	0.47091
923.82113	0.47430
921.89249	0.47775
919.96384	0.48053
918.03520	0.48210
916.10655	0.48191
914.17791	0.47936
912.24926	0.47417
910.32062	0.46648
908.39197	0.45691
906.46333	0.44657
904.53468	0.43669
902.60603	0.42804
900.67739	0.42084
898.74874	0.41512
896.82010	0.41100
894.89145	0.40857
892.96281	0.40776
891.03416	0.40854
889.10552	0.41074
887.17687	0.41375
885.24823	0.41652
883.31958	0.41809
881.39094	0.41799
879.46229	0.41629
877.53364	0.41357
875.60500	0.41101
873.67635	0.41001
871.74771	0.41135
869.81906	0.41463
867.89042	0.41861
865.96177	0.42188
864.03313	0.42336
862.10448	0.42244
860.17584	0.41926
858.24719	0.41478
856.31855	0.41017
854.38990	0.40634
852.46125	0.40377
850.53261	0.40261
848.60396	0.40261
846.67532	0.40301
844.74667	0.40287
842.81803	0.40157
840.88938	0.39926
838.96074	0.39675
837.03209	0.39508
835.10345	0.39499
833.17480	0.39659
831.24616	0.39944
829.31751	0.40269
827.38886	0.40554
825.46022	0.40768
823.53157	0.40934
821.60293	0.41097
819.67428	0.41294
817.74564	0.41569
815.81699	0.41984
813.88835	0.42625
811.95970	0.43596
810.03106	0.44989
808.10241	0.46821
806.17377	0.49002
804.24512	0.51343
802.31647	0.53568
800.38783	0.55336
798.45918	0.56354
796.53054	0.56504
794.60189	0.55888
792.67325	0.54773
790.74460	0.53516
788.81596	0.52449
786.88731	0.51761
784.95867	0.51438
783.03002	0.51316
781.10138	0.51196
779.17273	0.50930
777.24409	0.50458
775.31544	0.49799
773.38679	0.49009
771.45815	0.48164
769.52950	0.47341
767.60086	0.46605
765.67221	0.45996
763.74357	0.45558
761.81492	0.45347
759.88628	0.45385
757.95763	0.45616
756.02899	0.45919
754.10034	0.46162
752.17170	0.46246
750.24305	0.46144
748.31440	0.45907
746.38576	0.45637
744.45711	0.45434
742.52847	0.45361
740.59982	0.45432
738.67118	0.45634
736.74253	0.45959
734.81389	0.46391
732.88524	0.46876
730.95660	0.47319
729.02795	0.47644
727.09931	0.47840
725.17066	0.47938
723.24201	0.47992
721.31337	0.48074
719.38472	0.48245
717.45608	0.48524
715.52743	0.48895
713.59879	0.49345
711.67014	0.49871
709.74150	0.50471
707.81285	0.51148
705.88421	0.51906
703.95556	0.52737
702.02692	0.53599
700.09827	0.54411
698.16962	0.55059
696.24098	0.55442
694.31233	0.55510
692.38369	0.55303
690.45504	0.54942
688.52640	0.54575
686.59775	0.54320
684.66911	0.54225
682.74046	0.54270
680.81182	0.54426
678.88317	0.54696
676.95453	0.55102
675.02588	0.55641
673.09723	0.56253
671.16859	0.56804
669.23994	0.57126
667.31130	0.57099
665.38265	0.56747
663.45401	0.56234
661.52536	0.55759
659.59672	0.55459
657.66807	0.55373
655.73943	0.55455
653.81078	0.55612
651.88214	0.55770
649.95349	0.55924
648.02485	0.56117
646.09620	0.56386
644.16755	0.56733
642.23891	0.57130
640.31026	0.57536
638.38162	0.57938
636.45297	0.58388
634.52433	0.58999
632.59568	0.59850
630.66704	0.60855
628.73839	0.61732
626.80975	0.62106
624.88110	0.61668
622.95246	0.60357
621.02381	0.58470
619.09516	0.56613
617.16652	0.55454
615.23787	0.55433
613.30923	0.56616
611.38058	0.58707
609.45194	0.61157
607.52329	0.63352
605.59465	0.64792
603.66600	0.65240
601.73736	0.64772
599.80871	0.63729
597.88007	0.62575
595.95142	0.61717
594.02277	0.61383
592.09413	0.61581
590.16548	0.62153
588.23684	0.62891
586.30819	0.63654
584.37955	0.64410
582.45090	0.65211
580.52226	0.66115
578.59361	0.67137
576.66497	0.68241
574.73632	0.69383
572.80768	0.70540
570.87903	0.71712
568.95038	0.72902
567.02174	0.74108
565.09309	0.75306
563.16445	0.76446
561.23580	0.77490
559.30716	0.78471
557.37851	0.79499
555.44987	0.80704
553.52122	0.82171
551.59258	0.83897
549.66393	0.85790
547.73529	0.87708
545.80664	0.89503
543.87800	0.91086
541.94935	0.92429
540.02070	0.93523
538.09206	0.94332
536.16341	0.94788
534.23477	0.94830
532.30612	0.94445
530.37748	0.93678
528.44883	0.92622
526.52019	0.91379
524.59154	0.90009
522.66290	0.88511
520.73425	0.86857
518.80561	0.85060
516.87696	0.83203
514.94831	0.81413
513.01967	0.79797
511.09102	0.78382
509.16238	0.77117
507.23373	0.75902
505.30509	0.74648
503.37644	0.73327
501.44780	0.72002
499.51915	0.70809
497.59051	0.69899
495.66186	0.69399
493.73322	0.69403
491.80457	0.69962
489.87592	0.71079
487.94728	0.72708
486.01863	0.74772
484.08999	0.77184
482.16134	0.79843
480.23270	0.82644
478.30405	0.85468
476.37541	0.88168
474.44676	0.90544
472.51812	0.92357
470.58947	0.93381
468.66083	0.93470
466.73218	0.92608
464.80353	0.90938
462.87489	0.88721
460.94624	0.86242
459.01760	0.83703
457.08895	0.81171
455.16031	0.78608
453.23166	0.75929
451.30302	0.73088
449.37437	0.70142
447.44573	0.67259
445.51708	0.64657
443.58844	0.62514
441.65979	0.60904
439.73114	0.59791
437.80250	0.59054
435.87385	0.58541
433.94521	0.58113
432.01656	0.57678
430.08792	0.57185
428.15927	0.56606
426.23063	0.55927
424.30198	0.55148
422.37334	0.54285
420.44469	0.53351
418.51605	0.52335
416.58740	0.51199
414.65876	0.49906
412.73011	0.48466
410.80146	0.46994
408.87282	0.45714
406.94417	0.44885
405.01553	0.44664
403.08688	0.44985
401.15824	0.45530
399.22959	0.45820
397.30095	0.45395
395.37230	0.44017
393.44366	0.41783
391.51501	0.39083
389.58637	0.36454
387.65772	0.34389
385.72907	0.33200
383.80043	0.32950
381.87178	0.33472
379.94314	0.34442
378.01449	0.35479
376.08585	0.36226
374.15720	0.36425
372.22856	0.35966
370.29991	0.34904
368.37127	0.33436
366.44262	0.31837
364.51398	0.30386
362.58533	0.29306
360.65668	0.28704
358.72804	0.28558
356.79939	0.28733
354.87075	0.29033
352.94210	0.29255
351.01346	0.29237
349.08481	0.28884
347.15617	0.28178
345.22752	0.27163
343.29888	0.25932
341.37023	0.24602
339.44159	0.23296
337.51294	0.22136
335.58429	0.21229
333.65565	0.20645
331.72700	0.20382
329.79836	0.20361
327.86971	0.20455
325.94107	0.20515
324.01242	0.20411
322.08378	0.20086
320.15513	0.19589
318.22649	0.18983
316.29784	0.18366
314.36920	0.17807
312.44055	0.17352
310.51190	0.17032
308.58326	0.16864
306.65461	0.16859
304.72597	0.17009
302.79732	0.17281
300.86868	0.17599
298.94003	0.17859
297.01139	0.17960
295.08274	0.17855
293.15410	0.17578
291.22545	0.17233
289.29681	0.16973
287.36816	0.16951
285.43952	0.17250
283.51087	0.17832
281.58222	0.18557
279.65358	0.19268
277.72493	0.19842
275.79629	0.20222
273.86764	0.20405
271.93900	0.20412
270.01035	0.20243
268.08171	0.19879
266.15306	0.19331
264.22442	0.18684
262.29577	0.18075
260.36713	0.17653
258.43848	0.17533
256.50983	0.17747
254.58119	0.18247
252.65254	0.18929
250.72390	0.19670
248.79525	0.20335
246.86661	0.20792
244.93796	0.20965
243.00932	0.20878
241.08067	0.20681
239.15203	0.20640
237.22338	0.21053
235.29474	0.22114
233.36609	0.23776
231.43744	0.25741
229.50880	0.27577
227.58015	0.28888
225.65151	0.29485
223.72286	0.29468
221.79422	0.29183
219.86557	0.29027
217.93693	0.29243
216.00828	0.29814
214.07964	0.30489
212.15099	0.30886
210.22235	0.30665
208.29370	0.29712
206.36505	0.28253
204.43641	0.26772
202.50776	0.25833
200.57912	0.25894
198.65047	0.27134
196.72183	0.29335
194.79318	0.31941
192.86454	0.34299
190.93589	0.35912
189.00725	0.36580
187.07860	0.36475
185.14996	0.36129
183.22131	0.36238
181.29267	0.37368
179.36402	0.39707
177.43537	0.42984
175.50673	0.46538
173.57808	0.49513
171.64944	0.51189
169.72079	0.51273
167.79215	0.50033
165.86350	0.48207
163.93486	0.46762
162.00621	0.47303
160.07757	0.49393
158.14892	0.52328
156.22028	0.55289
154.29163	0.55289
152.36298	0.55289
150.43434	0.55289
148.50569	0.55289
