4497.60101	0.07763
4495.67236	0.07763
4493.74372	0.07763
4491.81507	0.07763
4489.88643	0.07763
4487.95778	0.07853
4486.02914	0.07961
4484.10049	0.08124
4482.17185	0.08397
4480.24320	0.08772
4478.31455	0.09180
4476.38591	0.09436
4474.45726	0.09366
4472.52862	0.08892
4470.59997	0.08101
4468.67133	0.07241
4466.74268	0.06625
4464.81404	0.06480
4462.88539	0.06809
4460.95675	0.07400
4459.02810	0.07979
4457.09946	0.08347
4455.17081	0.08408
4453.24216	0.08177
4451.31352	0.07785
4449.38487	0.07409
4447.45623	0.07167
4445.52758	0.07094
4443.59894	0.07171
4441.67029	0.07356
4439.74165	0.07593
4437.81300	0.07831
4435.88436	0.08031
4433.95571	0.08171
4432.02707	0.08271
4430.09842	0.08358
4428.16978	0.08418
4426.24113	0.08410
4424.31248	0.08313
4422.38384	0.08120
4420.45519	0.07827
4418.52655	0.07473
4416.59790	0.07171
4414.66926	0.07041
4412.74061	0.07122
4410.81197	0.07369
4408.88332	0.07682
4406.95468	0.07930
4405.02603	0.08001
4403.09739	0.07850
4401.16874	0.07517
4399.24009	0.07115
4397.31145	0.06785
4395.38280	0.06655
4393.45416	0.06804
4391.52551	0.07234
4389.59687	0.07864
4387.66822	0.08542
4385.73958	0.09107
4383.81093	0.09438
4381.88229	0.09487
4379.95364	0.09287
4378.02500	0.08932
4376.09635	0.08529
4374.16770	0.08156
4372.23906	0.07873
4370.31041	0.07735
4368.38177	0.07771
4366.45312	0.07968
4364.52448	0.08276
4362.59583	0.08620
4360.66719	0.08898
4358.73854	0.08993
4356.80990	0.08816
4354.88125	0.08371
4352.95261	0.07788
4351.02396	0.07289
4349.09531	0.07073
4347.16667	0.07222
4345.23802	0.07649
4343.30938	0.08138
4341.38073	0.08435
4339.45209	0.08402
4337.52344	0.08126
4335.59480	0.07832
4333.66615	0.07709
4331.73751	0.07824
4329.80886	0.08134
4327.88022	0.08524
4325.95157	0.08858
4324.02292	0.09057
4322.09428	0.09116
4320.16563	0.09051
4318.23699	0.08880
4316.30834	0.08661
4314.37970	0.08471
4312.45105	0.08336
4310.52241	0.08226
4308.59376	0.08102
4306.66512	0.07930
4304.73647	0.07728
4302.80783	0.07602
4300.87918	0.07703
4298.95054	0.08099
4297.02189	0.08713
4295.09324	0.09373
4293.16460	0.09905
4291.23595	0.10184
4289.30731	0.10168
4287.37866	0.09911
4285.45002	0.09512
4283.52137	0.09051
4281.59273	0.08552
4279.66408	0.08008
4277.73544	0.07449
4275.80679	0.06960
4273.87815	0.06655
4271.94950	0.06641
4270.02085	0.06962
4268.09221	0.07541
4266.16356	0.08166
4264.23492	0.08595
4262.30627	0.08698
4260.37763	0.08514
4258.44898	0.08199
4256.52034	0.07953
4254.59169	0.07930
4252.66305	0.08158
4250.73440	0.08536
4248.80576	0.08899
4246.87711	0.09111
4244.94846	0.09113
4243.01982	0.08924
4241.09117	0.08622
4239.16253	0.08300
4237.23388	0.08030
4235.30524	0.07836
4233.37659	0.07688
4231.44795	0.07543
4229.51930	0.07407
4227.59066	0.07328
4225.66201	0.07363
4223.73337	0.07552
4221.80472	0.07895
4219.87607	0.08310
4217.94743	0.08641
4216.01878	0.08744
4214.09014	0.08561
4212.16149	0.08120
4210.23285	0.07537
4208.30420	0.07014
4206.37556	0.06748
4204.44691	0.06803
4202.51827	0.07071
4200.58962	0.07368
4198.66098	0.07528
4196.73233	0.07455
4194.80368	0.07164
4192.87504	0.06796
4190.94639	0.06522
4189.01775	0.06436
4187.08910	0.06527
4185.16046	0.06747
4183.23181	0.07045
4181.30317	0.07353
4179.37452	0.07612
4177.44588	0.07809
4175.51723	0.07965
4173.58859	0.08085
4171.65994	0.08162
4169.73130	0.08220
4167.80265	0.08295
4165.87400	0.08388
4163.94536	0.08482
4162.01671	0.08583
4160.08807	0.08708
4158.15942	0.08827
4156.23078	0.08873
4154.30213	0.08794
4152.37349	0.08579
4150.44484	0.08258
4148.51620	0.07908
4146.58755	0.07635
4144.65891	0.07524
4142.73026	0.07594
4140.80161	0.07804
4138.87297	0.08074
4136.94432	0.08323
4135.01568	0.08508
4133.08703	0.08639
4131.15839	0.08740
4129.22974	0.08817
4127.30110	0.08864
4125.37245	0.08876
4123.44381	0.08828
4121.51516	0.08689
4119.58652	0.08454
4117.65787	0.08174
4115.72922	0.07937
4113.80058	0.07832
4111.87193	0.07915
4109.94329	0.08187
4108.01464	0.08582
4106.08600	0.08996
4104.15735	0.09328
4102.22871	0.09526
4100.30006	0.09588
4098.37142	0.09548
4096.44277	0.09453
4094.51413	0.09341
4092.58548	0.09198
4090.65683	0.08988
4088.72819	0.08696
4086.79954	0.08349
4084.87090	0.08000
4082.94225	0.07749
4081.01361	0.07730
4079.08496	0.08009
4077.15632	0.08487
4075.22767	0.08960
4073.29903	0.09244
4071.37038	0.09230
4069.44174	0.08923
4067.51309	0.08476
4065.58444	0.08131
4063.65580	0.08067
4061.72715	0.08295
4059.79851	0.08673
4057.86986	0.08986
4055.94122	0.09029
4054.01257	0.08707
4052.08393	0.08087
4050.15528	0.07368
4048.22664	0.06788
4046.29799	0.06524
4044.36935	0.06621
4042.44070	0.06995
4040.51206	0.07495
4038.58341	0.07966
4036.65476	0.08298
4034.72612	0.08438
4032.79747	0.08394
4030.86883	0.08214
4028.94018	0.07958
4027.01154	0.07701
4025.08289	0.07528
4023.15425	0.07508
4021.22560	0.07656
4019.29696	0.07943
4017.36831	0.08318
4015.43967	0.08715
4013.51102	0.09049
4011.58237	0.09252
4009.65373	0.09304
4007.72508	0.09211
4005.79644	0.08992
4003.86779	0.08699
4001.93915	0.08418
4000.01050	0.08220
3998.08186	0.08106
3996.15321	0.08046
3994.22457	0.08016
3992.29592	0.08007
3990.36728	0.08038
3988.43863	0.08162
3986.50998	0.08432
3984.58134	0.08835
3982.65269	0.09273
3980.72405	0.09613
3978.79540	0.09749
3976.86676	0.09649
3974.93811	0.09364
3973.00947	0.09000
3971.08082	0.08667
3969.15218	0.08431
3967.22353	0.08298
3965.29489	0.08230
3963.36624	0.08177
3961.43759	0.08102
3959.50895	0.08006
3957.58030	0.07929
3955.65166	0.07922
3953.72301	0.08015
3951.79437	0.08199
3949.86572	0.08428
3947.93708	0.08632
3946.00843	0.08749
3944.07979	0.08752
3942.15114	0.08662
3940.22250	0.08525
3938.29385	0.08382
3936.36521	0.08252
3934.43656	0.08136
3932.50791	0.08032
3930.57927	0.07941
3928.65062	0.07874
3926.72198	0.07846
3924.79333	0.07870
3922.86469	0.07945
3920.93604	0.08060
3919.00740	0.08196
3917.07875	0.08335
3915.15011	0.08445
3913.22146	0.08490
3911.29282	0.08442
3909.36417	0.08286
3907.43552	0.08039
3905.50688	0.07751
3903.57823	0.07502
3901.64959	0.07364
3899.72094	0.07367
3897.79230	0.07488
3895.86365	0.07656
3893.93501	0.07777
3892.00636	0.07774
3890.07772	0.07617
3888.14907	0.07342
3886.22043	0.07022
3884.29178	0.06728
3882.36313	0.06495
3880.43449	0.06331
3878.50584	0.06233
3876.57720	0.06212
3874.64855	0.06303
3872.71991	0.06550
3870.79126	0.06969
3868.86262	0.07509
3866.93397	0.08026
3865.00533	0.08325
3863.07668	0.08239
3861.14804	0.07726
3859.21939	0.06909
3857.29074	0.06049
3855.36210	0.05460
3853.43345	0.05378
3851.50481	0.05832
3849.57616	0.06621
3847.64752	0.07414
3845.71887	0.07915
3843.79023	0.07979
3841.86158	0.07649
3839.93294	0.07112
3838.00429	0.06589
3836.07565	0.06228
3834.14700	0.06058
3832.21835	0.06026
3830.28971	0.06060
3828.36106	0.06109
3826.43242	0.06147
3824.50377	0.06173
3822.57513	0.06210
3820.64648	0.06296
3818.71784	0.06454
3816.78919	0.06685
3814.86055	0.06957
3812.93190	0.07211
3811.00326	0.07379
3809.07461	0.07425
3807.14597	0.07385
3805.21732	0.07343
3803.28867	0.07390
3801.36003	0.07576
3799.43138	0.07881
3797.50274	0.08217
3795.57409	0.08474
3793.64545	0.08587
3791.71680	0.08555
3789.78816	0.08432
3787.85951	0.08291
3785.93087	0.08188
3784.00222	0.08144
3782.07358	0.08132
3780.14493	0.08112
3778.21628	0.08055
3776.28764	0.07952
3774.35899	0.07799
3772.43035	0.07604
3770.50170	0.07397
3768.57306	0.07234
3766.64441	0.07175
3764.71577	0.07258
3762.78712	0.07472
3760.85848	0.07749
3758.92983	0.07976
3757.00119	0.08031
3755.07254	0.07851
3753.14389	0.07466
3751.21525	0.06999
3749.28660	0.06608
3747.35796	0.06426
3745.42931	0.06509
3743.50067	0.06823
3741.57202	0.07256
3739.64338	0.07675
3737.71473	0.07996
3735.78609	0.08210
3733.85744	0.08364
3731.92880	0.08525
3730.00015	0.08744
3728.07150	0.09032
3726.14286	0.09362
3724.21421	0.09667
3722.28557	0.09867
3720.35692	0.09898
3718.42828	0.09737
3716.49963	0.09412
3714.57099	0.09008
3712.64234	0.08649
3710.71370	0.08466
3708.78505	0.08551
3706.85641	0.08932
3704.92776	0.09572
3702.99911	0.10375
3701.07047	0.11193
3699.14182	0.11855
3697.21318	0.12225
3695.28453	0.12254
3693.35589	0.12012
3691.42724	0.11667
3689.49860	0.11418
3687.56995	0.11410
3685.64131	0.11672
3683.71266	0.12121
3681.78402	0.12631
3679.85537	0.13115
3677.92673	0.13567
3675.99808	0.14042
3674.06943	0.14606
3672.14079	0.15295
3670.21214	0.16091
3668.28350	0.16951
3666.35485	0.17840
3664.42621	0.18742
3662.49756	0.19656
3660.56892	0.20573
3658.64027	0.21478
3656.71163	0.22371
3654.78298	0.23275
3652.85434	0.24239
3650.92569	0.25311
3648.99704	0.26518
3647.06840	0.27850
3645.13975	0.29275
3643.21111	0.30755
3641.28246	0.32258
3639.35382	0.33762
3637.42517	0.35243
3635.49653	0.36672
3633.56788	0.38024
3631.63924	0.39314
3629.71059	0.40593
3627.78195	0.41927
3625.85330	0.43355
3623.92465	0.44880
3621.99601	0.46463
3620.06736	0.48042
3618.13872	0.49572
3616.21007	0.51073
3614.28143	0.52634
3612.35278	0.54354
3610.42414	0.56265
3608.49549	0.58309
3606.56685	0.60344
3604.63820	0.62193
3602.70956	0.63733
3600.78091	0.64980
3598.85226	0.66092
3596.92362	0.67274
3594.99497	0.68675
3593.06633	0.70338
3591.13768	0.72201
3589.20904	0.74145
3587.28039	0.76056
3585.35175	0.77880
3583.42310	0.79625
3581.49446	0.81305
3579.56581	0.82917
3577.63717	0.84443
3575.70852	0.85875
3573.77988	0.87237
3571.85123	0.88584
3569.92258	0.89995
3567.99394	0.91545
3566.06529	0.93273
3564.13665	0.95164
3562.20800	0.97163
3560.27936	0.99196
3558.35071	1.01186
3556.42207	1.03067
3554.49342	1.04793
3552.56478	1.06353
3550.63613	1.07778
3548.70749	1.09139
3546.77884	1.10540
3544.85019	1.12076
3542.92155	1.13796
3540.99290	1.15672
3539.06426	1.17611
3537.13561	1.19491
3535.20697	1.21222
3533.27832	1.22783
3531.34968	1.24235
3529.42103	1.25686
3527.49239	1.27232
3525.56374	1.28915
3523.63510	1.30709
3521.70645	1.32532
3519.77780	1.34288
3517.84916	1.35914
3515.92051	1.37406
3513.99187	1.38819
3512.06322	1.40234
3510.13458	1.41722
3508.20593	1.43306
3506.27729	1.44952
3504.34864	1.46585
3502.42000	1.48137
3500.49135	1.49570
3498.56271	1.50893
3496.63406	1.52149
3494.70541	1.53398
3492.77677	1.54695
3490.84812	1.56074
3488.91948	1.57552
3486.99083	1.59136
3485.06219	1.60811
3483.13354	1.62537
3481.20490	1.64240
3479.27625	1.65836
3477.34761	1.67247
3475.41896	1.68431
3473.49032	1.69401
3471.56167	1.70211
3469.63302	1.70939
3467.70438	1.71659
3465.77573	1.72431
3463.84709	1.73298
3461.91844	1.74291
3459.98980	1.75426
3458.06115	1.76688
3456.13251	1.78014
3454.20386	1.79305
3452.27522	1.80469
3450.34657	1.81460
3448.41793	1.82296
3446.48928	1.83048
3444.56064	1.83804
3442.63199	1.84620
3440.70334	1.85491
3438.77470	1.86373
3436.84605	1.87226
3434.91741	1.88046
3432.98876	1.88857
3431.06012	1.89687
3429.13147	1.90542
3427.20283	1.91396
3425.27418	1.92196
3423.34554	1.92896
3421.41689	1.93481
3419.48825	1.93966
3417.55960	1.94380
3415.63095	1.94748
3413.70231	1.95090
3411.77366	1.95420
3409.84502	1.95750
3407.91637	1.96099
3405.98773	1.96477
3404.05908	1.96871
3402.13044	1.97255
3400.20179	1.97606
3398.27315	1.97917
3396.34450	1.98202
3394.41586	1.98484
3392.48721	1.98790
3390.55856	1.99128
3388.62992	1.99470
3386.70127	1.99760
3384.77263	1.99947
3382.84398	2.00000
3380.91534	1.99922
3378.98669	1.99756
3377.05805	1.99569
3375.12940	1.99419
3373.20076	1.99327
3371.27211	1.99273
3369.34347	1.99226
3367.41482	1.99163
3365.48617	1.99083
3363.55753	1.98999
3361.62888	1.98914
3359.70024	1.98811
3357.77159	1.98660
3355.84295	1.98440
3353.91430	1.98165
3351.98566	1.97892
3350.05701	1.97693
3348.12837	1.97616
3346.19972	1.97656
3344.27108	1.97763
3342.34243	1.97858
3340.41378	1.97857
3338.48514	1.97703
3336.55649	1.97384
3334.62785	1.96937
3332.69920	1.96441
3330.77056	1.95984
3328.84191	1.95643
3326.91327	1.95454
3324.98462	1.95393
3323.05598	1.95394
3321.12733	1.95383
3319.19869	1.95319
3317.27004	1.95211
3315.34140	1.95100
3313.41275	1.95035
3311.48410	1.95033
3309.55546	1.95070
3307.62681	1.95081
3305.69817	1.95008
3303.76952	1.94838
3301.84088	1.94617
3299.91223	1.94431
3297.98359	1.94360
3296.05494	1.94434
3294.12630	1.94596
3292.19765	1.94725
3290.26901	1.94684
3288.34036	1.94398
3286.41171	1.93881
3284.48307	1.93230
3282.55442	1.92571
3280.62578	1.91994
3278.69713	1.91514
3276.76849	1.91082
3274.83984	1.90628
3272.91120	1.90117
3270.98255	1.89556
3269.05391	1.88979
3267.12526	1.88414
3265.19662	1.87861
3263.26797	1.87292
3261.33932	1.86674
3259.41068	1.85987
3257.48203	1.85232
3255.55339	1.84416
3253.62474	1.83545
3251.69610	1.82620
3249.76745	1.81655
3247.83881	1.80691
3245.91016	1.79793
3243.98152	1.79035
3242.05287	1.78460
3240.12423	1.78054
3238.19558	1.77750
3236.26693	1.77444
3234.33829	1.77040
3232.40964	1.76487
3230.48100	1.75790
3228.55235	1.74997
3226.62371	1.74168
3224.69506	1.73340
3222.76642	1.72525
3220.83777	1.71714
3218.90913	1.70890
3216.98048	1.70035
3215.05184	1.69139
3213.12319	1.68200
3211.19455	1.67234
3209.26590	1.66270
3207.33725	1.65349
3205.40861	1.64507
3203.47996	1.63757
3201.55132	1.63076
3199.62267	1.62417
3197.69403	1.61735
3195.76538	1.61005
3193.83674	1.60222
3191.90809	1.59391
3189.97945	1.58513
3188.05080	1.57580
3186.12216	1.56585
3184.19351	1.55541
3182.26486	1.54482
3180.33622	1.53450
3178.40757	1.52477
3176.47893	1.51565
3174.55028	1.50697
3172.62164	1.49849
3170.69299	1.49011
3168.76435	1.48193
3166.83570	1.47417
3164.90706	1.46693
3162.97841	1.46008
3161.04977	1.45328
3159.12112	1.44613
3157.19247	1.43833
3155.26383	1.42973
3153.33518	1.42042
3151.40654	1.41064
3149.47789	1.40069
3147.54925	1.39094
3145.62060	1.38182
3143.69196	1.37370
3141.76331	1.36672
3139.83467	1.36070
3137.90602	1.35523
3135.97738	1.34982
3134.04873	1.34409
3132.12008	1.33785
3130.19144	1.33108
3128.26279	1.32379
3126.33415	1.31585
3124.40550	1.30708
3122.47686	1.29742
3120.54821	1.28712
3118.61957	1.27678
3116.69092	1.26712
3114.76228	1.25877
3112.83363	1.25199
3110.90499	1.24656
3108.97634	1.24189
3107.04769	1.23726
3105.11905	1.23208
3103.19040	1.22607
3101.26176	1.21922
3099.33311	1.21177
3097.40447	1.20404
3095.47582	1.19637
3093.54718	1.18899
3091.61853	1.18196
3089.68989	1.17518
3087.76124	1.16847
3085.83260	1.16158
3083.90395	1.15440
3081.97531	1.14696
3080.04666	1.13947
3078.11801	1.13225
3076.18937	1.12559
3074.26072	1.11961
3072.33208	1.11420
3070.40343	1.10900
3068.47479	1.10351
3066.54614	1.09736
3064.61750	1.09047
3062.68885	1.08315
3060.76021	1.07596
3058.83156	1.06939
3056.90292	1.06359
3054.97427	1.05822
3053.04562	1.05256
3051.11698	1.04586
3049.18833	1.03776
3047.25969	1.02838
3045.33104	1.01827
3043.40240	1.00817
3041.47375	0.99877
3039.54511	0.99051
3037.61646	0.98358
3035.68782	0.97797
3033.75917	0.97345
3031.83053	0.96963
3029.90188	0.96607
3027.97323	0.96235
3026.04459	0.95816
3024.11594	0.95343
3022.18730	0.94833
3020.25865	0.94313
3018.33001	0.93811
3016.40136	0.93346
3014.47272	0.92926
3012.54407	0.92550
3010.61543	0.92196
3008.68678	0.91833
3006.75814	0.91434
3004.82949	0.91001
3002.90084	0.90563
3000.97220	0.90153
2999.04355	0.89789
2997.11491	0.89471
2995.18626	0.89191
2993.25762	0.88927
2991.32897	0.88667
2989.40033	0.88448
2987.47168	0.88338
2985.54304	0.88374
2983.61439	0.88539
2981.68575	0.88784
2979.75710	0.89063
2977.82845	0.89331
2975.89981	0.89569
2973.97116	0.89807
2972.04252	0.90101
2970.11387	0.90483
2968.18523	0.90933
2966.25658	0.91389
2964.32794	0.91770
2962.39929	0.92006
2960.47065	0.92069
2958.54200	0.91976
2956.61336	0.91766
2954.68471	0.91500
2952.75607	0.91248
2950.82742	0.91064
2948.89877	0.90976
2946.97013	0.90998
2945.04148	0.91143
2943.11284	0.91413
2941.18419	0.91781
2939.25555	0.92212
2937.32690	0.92682
2935.39826	0.93169
2933.46961	0.93630
2931.54097	0.94014
2929.61232	0.94284
2927.68368	0.94409
2925.75503	0.94330
2923.82638	0.93964
2921.89774	0.93242
2919.96909	0.92141
2918.04045	0.90681
2916.11180	0.88943
2914.18316	0.87079
2912.25451	0.85268
2910.32587	0.83644
2908.39722	0.82257
2906.46858	0.81106
2904.53993	0.80165
2902.61129	0.79385
2900.68264	0.78692
2898.75399	0.78006
2896.82535	0.77255
2894.89670	0.76396
2892.96806	0.75437
2891.03941	0.74461
2889.11077	0.73610
2887.18212	0.73033
2885.25348	0.72796
2883.32483	0.72841
2881.39619	0.73024
2879.46754	0.73167
2877.53890	0.73110
2875.61025	0.72768
2873.68160	0.72181
2871.75296	0.71498
2869.82431	0.70891
2867.89567	0.70488
2865.96702	0.70359
2864.03838	0.70493
2862.10973	0.70799
2860.18109	0.71144
2858.25244	0.71404
2856.32380	0.71476
2854.39515	0.71264
2852.46651	0.70698
2850.53786	0.69768
2848.60922	0.68562
2846.68057	0.67238
2844.75192	0.65968
2842.82328	0.64874
2840.89463	0.63998
2838.96599	0.63280
2837.03734	0.62588
2835.10870	0.61808
2833.18005	0.60909
2831.25141	0.59951
2829.32276	0.59033
2827.39412	0.58254
2825.46547	0.57682
2823.53683	0.57323
2821.60818	0.57127
2819.67953	0.57026
2817.75089	0.56946
2815.82224	0.56817
2813.89360	0.56599
2811.96495	0.56297
2810.03631	0.55938
2808.10766	0.55545
2806.17902	0.55138
2804.25037	0.54741
2802.32173	0.54353
2800.39308	0.53959
2798.46444	0.53571
2796.53579	0.53236
2794.60714	0.52994
2792.67850	0.52835
2790.74985	0.52725
2788.82121	0.52620
2786.89256	0.52471
2784.96392	0.52229
2783.03527	0.51881
2781.10663	0.51472
2779.17798	0.51061
2777.24934	0.50697
2775.32069	0.50407
2773.39205	0.50194
2771.46340	0.50020
2769.53475	0.49818
2767.60611	0.49537
2765.67746	0.49180
2763.74882	0.48802
2761.82017	0.48481
2759.89153	0.48278
2757.96288	0.48211
2756.03424	0.48238
2754.10559	0.48282
2752.17695	0.48262
2750.24830	0.48121
2748.31966	0.47845
2746.39101	0.47453
2744.46236	0.46993
2742.53372	0.46541
2740.60507	0.46168
2738.67643	0.45917
2736.74778	0.45795
2734.81914	0.45772
2732.89049	0.45782
2730.96185	0.45740
2729.03320	0.45584
2727.10456	0.45311
2725.17591	0.44960
2723.24727	0.44586
2721.31862	0.44247
2719.38998	0.43990
2717.46133	0.43808
2715.53268	0.43644
2713.60404	0.43437
2711.67539	0.43161
2709.74675	0.42835
2707.81810	0.42513
2705.88946	0.42254
2703.96081	0.42087
2702.03217	0.41996
2700.10352	0.41928
2698.17488	0.41818
2696.24623	0.41621
2694.31759	0.41340
2692.38894	0.41019
2690.46029	0.40706
2688.53165	0.40435
2686.60300	0.40238
2684.67436	0.40122
2682.74571	0.40045
2680.81707	0.39943
2678.88842	0.39770
2676.95978	0.39516
2675.03113	0.39201
2673.10249	0.38890
2671.17384	0.38661
2669.24520	0.38542
2667.31655	0.38485
2665.38790	0.38411
2663.45926	0.38262
2661.53061	0.38010
2659.60197	0.37666
2657.67332	0.37290
2655.74468	0.36952
2653.81603	0.36685
2651.88739	0.36471
2649.95874	0.36291
2648.03010	0.36139
2646.10145	0.36001
2644.17281	0.35854
2642.24416	0.35702
2640.31551	0.35571
2638.38687	0.35470
2636.45822	0.35375
2634.52958	0.35268
2632.60093	0.35138
2630.67229	0.34973
2628.74364	0.34776
2626.81500	0.34585
2624.88635	0.34438
2622.95771	0.34320
2621.02906	0.34165
2619.10042	0.33908
2617.17177	0.33544
2615.24312	0.33134
2613.31448	0.32775
2611.38583	0.32555
2609.45719	0.32497
2607.52854	0.32541
2605.59990	0.32578
2603.67125	0.32537
2601.74261	0.32421
2599.81396	0.32287
2597.88532	0.32196
2595.95667	0.32170
2594.02803	0.32181
2592.09938	0.32169
2590.17074	0.32074
2588.24209	0.31875
2586.31344	0.31609
2584.38480	0.31338
2582.45615	0.31113
2580.52751	0.30941
2578.59886	0.30804
2576.67022	0.30680
2574.74157	0.30559
2572.81293	0.30469
2570.88428	0.30470
2568.95564	0.30589
2567.02699	0.30768
2565.09835	0.30889
2563.16970	0.30848
2561.24105	0.30612
2559.31241	0.30219
2557.38376	0.29779
2555.45512	0.29434
2553.52647	0.29280
2551.59783	0.29311
2549.66918	0.29447
2547.74054	0.29600
2545.81189	0.29715
2543.88325	0.29772
2541.95460	0.29797
2540.02596	0.29855
2538.09731	0.30006
2536.16866	0.30257
2534.24002	0.30554
2532.31137	0.30813
2530.38273	0.30946
2528.45408	0.30869
2526.52544	0.30537
2524.59679	0.29978
2522.66815	0.29311
2520.73950	0.28724
2518.81086	0.28404
2516.88221	0.28462
2514.95357	0.28885
2513.02492	0.29549
2511.09627	0.30270
2509.16763	0.30894
2507.23898	0.31353
2505.31034	0.31644
2503.38169	0.31783
2501.45305	0.31770
2499.52440	0.31589
2497.59576	0.31245
2495.66711	0.30809
2493.73847	0.30401
2491.80982	0.30133
2489.88118	0.30048
2487.95253	0.30124
2486.02389	0.30283
2484.09524	0.30431
2482.16659	0.30519
2480.23795	0.30584
2478.30930	0.30688
2476.38066	0.30859
2474.45201	0.31095
2472.52337	0.31370
2470.59472	0.31615
2468.66608	0.31745
2466.73743	0.31723
2464.80879	0.31570
2462.88014	0.31324
2460.95150	0.31027
2459.02285	0.30762
2457.09420	0.30624
2455.16556	0.30645
2453.23691	0.30770
2451.30827	0.30919
2449.37962	0.31023
2447.45098	0.31010
2445.52233	0.30833
2443.59369	0.30539
2441.66504	0.30263
2439.73640	0.30133
2437.80775	0.30231
2435.87911	0.30600
2433.95046	0.31208
2432.02181	0.31893
2430.09317	0.32439
2428.16452	0.32709
2426.23588	0.32705
2424.30723	0.32521
2422.37859	0.32289
2420.44994	0.32131
2418.52130	0.32091
2416.59265	0.32102
2414.66401	0.32061
2412.73536	0.31934
2410.80672	0.31773
2408.87807	0.31659
2406.94942	0.31649
2405.02078	0.31760
2403.09213	0.31954
2401.16349	0.32135
2399.23484	0.32191
2397.30620	0.32067
2395.37755	0.31788
2393.44891	0.31434
2391.52026	0.31112
2389.59162	0.30928
2387.66297	0.30936
2385.73433	0.31112
2383.80568	0.31380
2381.87703	0.31665
2379.94839	0.31940
2378.01974	0.32209
2376.09110	0.32466
2374.16245	0.32651
2372.23381	0.32633
2370.30516	0.32276
2368.37652	0.31534
2366.44787	0.30537
2364.51923	0.29568
2362.59058	0.28942
2360.66194	0.28838
2358.73329	0.29219
2356.80465	0.29859
2354.87600	0.30467
2352.94735	0.30841
2351.01871	0.30951
2349.09006	0.30915
2347.16142	0.30874
2345.23277	0.30863
2343.30413	0.30800
2341.37548	0.30551
2339.44684	0.30031
2337.51819	0.29282
2335.58955	0.28485
2333.66090	0.27889
2331.73226	0.27691
2329.80361	0.27924
2327.87496	0.28456
2325.94632	0.29062
2324.01767	0.29535
2322.08903	0.29772
2320.16038	0.29805
2318.23174	0.29775
2316.30309	0.29835
2314.37445	0.30061
2312.44580	0.30419
2310.51716	0.30805
2308.58851	0.31093
2306.65987	0.31179
2304.73122	0.31014
2302.80257	0.30616
2300.87393	0.30040
2298.94528	0.29349
2297.01664	0.28598
2295.08799	0.27838
2293.15935	0.27122
2291.23070	0.26513
2289.30206	0.26079
2287.37341	0.25863
2285.44477	0.25862
2283.51612	0.26000
2281.58748	0.26143
2279.65883	0.26150
2277.73018	0.25958
2275.80154	0.25638
2273.87289	0.25360
2271.94425	0.25297
2270.01560	0.25532
2268.08696	0.26003
2266.15831	0.26524
2264.22967	0.26870
2262.30102	0.26893
2260.37238	0.26593
2258.44373	0.26084
2256.51509	0.25513
2254.58644	0.24992
2252.65779	0.24603
2250.72915	0.24419
2248.80050	0.24509
2246.87186	0.24888
2244.94321	0.25458
2243.01457	0.26008
2241.08592	0.26296
2239.15728	0.26118
2237.22863	0.25416
2235.29999	0.24388
2233.37134	0.23404
2231.44270	0.22746
2229.51405	0.22461
2227.58541	0.22483
2225.65676	0.22804
2223.72811	0.23437
2221.79947	0.24341
2219.87082	0.25414
2217.94218	0.26441
2216.01353	0.27023
2214.08489	0.26717
2212.15624	0.25342
2210.22760	0.23134
2208.29895	0.20613
2206.37031	0.18305
2204.44166	0.16626
2202.51302	0.15861
2200.58437	0.16042
2198.65572	0.16881
2196.72708	0.17939
2194.79843	0.18754
2192.86979	0.18898
2190.94114	0.18175
2189.01250	0.16931
2187.08385	0.15963
2185.15521	0.15939
2183.22656	0.17052
2181.29792	0.19145
2179.36927	0.21703
2177.44063	0.23785
2175.51198	0.24522
2173.58333	0.23783
2171.65469	0.22080
2169.72604	0.19873
2167.79740	0.17395
2165.86875	0.14922
2163.94011	0.12633
2162.01146	0.10275
2160.08282	0.07502
2158.15417	0.04537
2156.22553	0.02056
2154.29688	0.00514
2152.36824	0.00000
2150.43959	0.00590
2148.51094	0.02352
2146.58230	0.05051
2144.65365	0.08195
2142.72501	0.11391
2140.79636	0.14386
2138.86772	0.16794
2136.93907	0.18199
2135.01043	0.18580
2133.08178	0.18381
2131.15314	0.18155
2129.22449	0.18265
2127.29585	0.18842
2125.36720	0.19791
2123.43856	0.20816
2121.50991	0.21595
2119.58126	0.22011
2117.65262	0.22136
2115.72397	0.22068
2113.79533	0.21879
2111.86668	0.21617
2109.93804	0.21280
2108.00939	0.20871
2106.08075	0.20475
2104.15210	0.20212
2102.22346	0.20116
2100.29481	0.20099
2098.36617	0.20070
2096.43752	0.19982
2094.50887	0.19785
2092.58023	0.19440
2090.65158	0.18972
2088.72294	0.18462
2086.79429	0.18016
2084.86565	0.17752
2082.93700	0.17792
2081.00836	0.18187
2079.07971	0.18816
2077.15107	0.19407
2075.22242	0.19660
2073.29378	0.19397
2071.36513	0.18641
2069.43648	0.17605
2067.50784	0.16591
2065.57919	0.15833
2063.65055	0.15407
2061.72190	0.15226
2059.79326	0.15113
2057.86461	0.14888
2055.93597	0.14432
2054.00732	0.13717
2052.07868	0.12806
2050.15003	0.11844
2048.22139	0.11024
2046.29274	0.10501
2044.36409	0.10330
2042.43545	0.10465
2040.50680	0.10801
2038.57816	0.11232
2036.64951	0.11690
2034.72087	0.12171
2032.79222	0.12687
2030.86358	0.13201
2028.93493	0.13651
2027.00629	0.14076
2025.07764	0.14649
2023.14900	0.15552
2021.22035	0.16818
2019.29170	0.18229
2017.36306	0.19312
2015.43441	0.19499
2013.50577	0.18447
2011.57712	0.16303
2009.64848	0.13647
2007.71983	0.11214
2005.79119	0.09587
2003.86254	0.09009
2001.93390	0.09417
2000.00525	0.10473
1998.07661	0.11861
1996.14796	0.13455
1994.21932	0.15280
1992.29067	0.17343
1990.36202	0.19496
1988.43338	0.21414
1986.50473	0.22678
1984.57609	0.22958
1982.64744	0.22218
1980.71880	0.20777
1978.79015	0.19166
1976.86151	0.17868
1974.93286	0.17111
1973.00422	0.16832
1971.07557	0.16791
1969.14693	0.16748
1967.21828	0.16587
1965.28963	0.16348
1963.36099	0.16187
1961.43234	0.16283
1959.50370	0.16756
1957.57505	0.17643
1955.64641	0.18937
1953.71776	0.20581
1951.78912	0.22419
1949.86047	0.24192
1947.93183	0.25634
1946.00318	0.26544
1944.07454	0.26810
1942.14589	0.26426
1940.21724	0.25518
1938.28860	0.24307
1936.35995	0.23027
1934.43131	0.21860
1932.50266	0.20926
1930.57402	0.20288
1928.64537	0.19937
1926.71673	0.19804
1924.78808	0.19802
1922.85944	0.19863
1920.93079	0.19958
1919.00215	0.20101
1917.07350	0.20332
1915.14485	0.20686
1913.21621	0.21153
1911.28756	0.21653
1909.35892	0.22060
1907.43027	0.22257
1905.50163	0.22201
1903.57298	0.21954
1901.64434	0.21642
1899.71569	0.21384
1897.78705	0.21241
1895.85840	0.21207
1893.92976	0.21233
1892.00111	0.21260
1890.07246	0.21266
1888.14382	0.21268
1886.21517	0.21286
1884.28653	0.21316
1882.35788	0.21342
1880.42924	0.21361
1878.50059	0.21376
1876.57195	0.21391
1874.64330	0.21398
1872.71466	0.21368
1870.78601	0.21253
1868.85737	0.21015
1866.92872	0.20668
1865.00008	0.20297
1863.07143	0.20036
1861.14278	0.20004
1859.21414	0.20255
1857.28549	0.20740
1855.35685	0.21320
1853.42820	0.21827
1851.49956	0.22132
1849.57091	0.22198
1847.64227	0.22090
1845.71362	0.21937
1843.78498	0.21869
1841.85633	0.21952
1839.92769	0.22171
1837.99904	0.22447
1836.07039	0.22679
1834.14175	0.22789
1832.21310	0.22754
1830.28446	0.22610
1828.35581	0.22430
1826.42717	0.22287
1824.49852	0.22225
1822.56988	0.22255
1820.64123	0.22353
1818.71259	0.22468
1816.78394	0.22556
1814.85530	0.22594
1812.92665	0.22589
1810.99800	0.22569
1809.06936	0.22580
1807.14071	0.22659
1805.21207	0.22822
1803.28342	0.23044
1801.35478	0.23276
1799.42613	0.23470
1797.49749	0.23595
1795.56884	0.23654
1793.64020	0.23684
1791.71155	0.23730
1789.78291	0.23821
1787.85426	0.23951
1785.92561	0.24087
1783.99697	0.24189
1782.06832	0.24228
1780.13968	0.24211
1778.21103	0.24178
1776.28239	0.24190
1774.35374	0.24308
1772.42510	0.24567
1770.49645	0.24972
1768.56781	0.25498
1766.63916	0.26098
1764.71052	0.26726
1762.78187	0.27344
1760.85322	0.27930
1758.92458	0.28479
1756.99593	0.29013
1755.06729	0.29574
1753.13864	0.30217
1751.21000	0.30993
1749.28135	0.31924
1747.35271	0.32975
1745.42406	0.34055
1743.49542	0.35053
1741.56677	0.35895
1739.63813	0.36582
1737.70948	0.37198
1735.78084	0.37878
1733.85219	0.38748
1731.92354	0.39851
1729.99490	0.41113
1728.06625	0.42375
1726.13761	0.43479
1724.20896	0.44351
1722.28032	0.45032
1720.35167	0.45662
1718.42303	0.46416
1716.49438	0.47409
1714.56574	0.48644
1712.63709	0.50013
1710.70845	0.51371
1708.77980	0.52615
1706.85115	0.53741
1704.92251	0.54842
1702.99386	0.56086
1701.06522	0.57647
1699.13657	0.59635
1697.20793	0.62043
1695.27928	0.64754
1693.35064	0.67599
1691.42199	0.70434
1689.49335	0.73184
1687.56470	0.75870
1685.63606	0.78573
1683.70741	0.81378
1681.77876	0.84314
1679.85012	0.87340
1677.92147	0.90390
1675.99283	0.93414
1674.06418	0.96398
1672.13554	0.99363
1670.20689	1.02341
1668.27825	1.05344
1666.34960	1.08327
1664.42096	1.11190
1662.49231	1.13810
1660.56367	1.16084
1658.63502	1.17965
1656.70637	1.19481
1654.77773	1.20735
1652.84908	1.21869
1650.92044	1.22996
1648.99179	1.24152
1647.06315	1.25288
1645.13450	1.26308
1643.20586	1.27111
1641.27721	1.27632
1639.34857	1.27868
1637.41992	1.27855
1635.49128	1.27625
1633.56263	1.27170
1631.63399	1.26445
1629.70534	1.25395
1627.77669	1.24005
1625.84805	1.22324
1623.91940	1.20475
1621.99076	1.18622
1620.06211	1.16927
1618.13347	1.15506
1616.20482	1.14401
1614.27618	1.13583
1612.34753	1.12970
1610.41889	1.12468
1608.49024	1.11996
1606.56160	1.11511
1604.63295	1.10997
1602.70430	1.10462
1600.77566	1.09910
1598.84701	1.09331
1596.91837	1.08692
1594.98972	1.07949
1593.06108	1.07073
1591.13243	1.06051
1589.20379	1.04891
1587.27514	1.03606
1585.34650	1.02223
1583.41785	1.00784
1581.48921	0.99345
1579.56056	0.97976
1577.63191	0.96755
1575.70327	0.95743
1573.77462	0.94949
1571.84598	0.94297
1569.91733	0.93647
1567.98869	0.92845
1566.06004	0.91790
1564.13140	0.90486
1562.20275	0.89056
1560.27411	0.87695
1558.34546	0.86579
1556.41682	0.85761
1554.48817	0.85137
1552.55952	0.84489
1550.63088	0.83578
1548.70223	0.82249
1546.77359	0.80496
1544.84494	0.78468
1542.91630	0.76397
1540.98765	0.74516
1539.05901	0.72969
1537.13036	0.71778
1535.20172	0.70855
1533.27307	0.70052
1531.34443	0.69236
1529.41578	0.68338
1527.48713	0.67377
1525.55849	0.66438
1523.62984	0.65618
1521.70120	0.64952
1519.77255	0.64366
1517.84391	0.63691
1515.91526	0.62731
1513.98662	0.61366
1512.05797	0.59612
1510.12933	0.57621
1508.20068	0.55620
1506.27204	0.53815
1504.34339	0.52310
1502.41475	0.51074
1500.48610	0.49999
1498.55745	0.48980
1496.62881	0.47968
1494.70016	0.46985
1492.77152	0.46093
1490.84287	0.45361
1488.91423	0.44825
1486.98558	0.44473
1485.05694	0.44270
1483.12829	0.44196
1481.19965	0.44280
1479.27100	0.44606
1477.34236	0.45277
1475.41371	0.46364
1473.48506	0.47863
1471.55642	0.49650
1469.62777	0.51499
1467.69913	0.53144
1465.77048	0.54381
1463.84184	0.55139
1461.91319	0.55487
1459.98455	0.55589
1458.05590	0.55630
1456.12726	0.55733
1454.19861	0.55909
1452.26997	0.56077
1450.34132	0.56123
1448.41267	0.55971
1446.48403	0.55617
1444.55538	0.55136
1442.62674	0.54653
1440.69809	0.54308
1438.76945	0.54216
1436.84080	0.54441
1434.91216	0.54988
1432.98351	0.55810
1431.05487	0.56827
1429.12622	0.57959
1427.19758	0.59144
1425.26893	0.60356
1423.34028	0.61599
1421.41164	0.62890
1419.48299	0.64235
1417.55435	0.65616
1415.62570	0.66987
1413.69706	0.68295
1411.76841	0.69490
1409.83977	0.70531
1407.91112	0.71385
1405.98248	0.72032
1404.05383	0.72462
1402.12519	0.72682
1400.19654	0.72714
1398.26789	0.72594
1396.33925	0.72371
1394.41060	0.72087
1392.48196	0.71770
1390.55331	0.71430
1388.62467	0.71063
1386.69602	0.70658
1384.76738	0.70198
1382.83873	0.69669
1380.91009	0.69060
1378.98144	0.68370
1377.05280	0.67600
1375.12415	0.66758
1373.19551	0.65845
1371.26686	0.64865
1369.33821	0.63826
1367.40957	0.62749
1365.48092	0.61677
1363.55228	0.60666
1361.62363	0.59771
1359.69499	0.59026
1357.76634	0.58427
1355.83770	0.57932
1353.90905	0.57477
1351.98041	0.56999
1350.05176	0.56455
1348.12312	0.55844
1346.19447	0.55196
1344.26582	0.54567
1342.33718	0.54016
1340.40853	0.53579
1338.47989	0.53264
1336.55124	0.53042
1334.62260	0.52870
1332.69395	0.52709
1330.76531	0.52542
1328.83666	0.52369
1326.90802	0.52205
1324.97937	0.52061
1323.05073	0.51940
1321.12208	0.51829
1319.19343	0.51709
1317.26479	0.51566
1315.33614	0.51395
1313.40750	0.51197
1311.47885	0.50984
1309.55021	0.50777
1307.62156	0.50598
1305.69292	0.50475
1303.76427	0.50434
1301.83563	0.50494
1299.90698	0.50659
1297.97834	0.50921
1296.04969	0.51254
1294.12104	0.51625
1292.19240	0.51999
1290.26375	0.52350
1288.33511	0.52666
1286.40646	0.52957
1284.47782	0.53246
1282.54917	0.53559
1280.62053	0.53908
1278.69188	0.54291
1276.76324	0.54690
1274.83459	0.55083
1272.90595	0.55458
1270.97730	0.55817
1269.04866	0.56171
1267.12001	0.56520
1265.19136	0.56847
1263.26272	0.57116
1261.33407	0.57295
1259.40543	0.57373
1257.47678	0.57368
1255.54814	0.57314
1253.61949	0.57251
1251.69085	0.57203
1249.76220	0.57182
1247.83356	0.57193
1245.90491	0.57237
1243.97627	0.57326
1242.04762	0.57466
1240.11897	0.57655
1238.19033	0.57875
1236.26168	0.58102
1234.33304	0.58306
1232.40439	0.58462
1230.47575	0.58553
1228.54710	0.58574
1226.61846	0.58538
1224.68981	0.58475
1222.76117	0.58421
1220.83252	0.58404
1218.90388	0.58429
1216.97523	0.58471
1215.04658	0.58489
1213.11794	0.58446
1211.18929	0.58328
1209.26065	0.58152
1207.33200	0.57964
1205.40336	0.57819
1203.47471	0.57769
1201.54607	0.57859
1199.61742	0.58123
1197.68878	0.58575
1195.76013	0.59207
1193.83149	0.60003
1191.90284	0.60949
1189.97419	0.62037
1188.04555	0.63279
1186.11690	0.64701
1184.18826	0.66329
1182.25961	0.68177
1180.33097	0.70245
1178.40232	0.72521
1176.47368	0.74986
1174.54503	0.77610
1172.61639	0.80358
1170.68774	0.83176
1168.75910	0.85997
1166.83045	0.88772
1164.90180	0.91491
1162.97316	0.94178
1161.04451	0.96875
1159.11587	0.99619
1157.18722	1.02436
1155.25858	1.05316
1153.32993	1.08208
1151.40129	1.11051
1149.47264	1.13833
1147.54400	1.16609
1145.61535	1.19480
1143.68671	1.22561
1141.75806	1.25962
1139.82942	1.29722
1137.90077	1.33763
1135.97212	1.37916
1134.04348	1.42020
1132.11483	1.45959
1130.18619	1.49657
1128.25754	1.53078
1126.32890	1.56219
1124.40025	1.59087
1122.47161	1.61685
1120.54296	1.64037
1118.61432	1.66216
1116.68567	1.68311
1114.75703	1.70371
1112.82838	1.72385
1110.89973	1.74296
1108.97109	1.76052
1107.04244	1.77653
1105.11380	1.79164
1103.18515	1.80681
1101.25651	1.82273
1099.32786	1.83923
1097.39922	1.85508
1095.47057	1.86865
1093.54193	1.87889
1091.61328	1.88570
1089.68464	1.88976
1087.75599	1.89211
1085.82734	1.89363
1083.89870	1.89444
1081.97005	1.89367
1080.04141	1.89020
1078.11276	1.88310
1076.18412	1.87160
1074.25547	1.85508
1072.32683	1.83337
1070.39818	1.80693
1068.46954	1.77672
1066.54089	1.74400
1064.61225	1.71034
1062.68360	1.67699
1060.75495	1.64436
1058.82631	1.61214
1056.89766	1.57981
1054.96902	1.54709
1053.04037	1.51395
1051.11173	1.48060
1049.18308	1.44747
1047.25444	1.41485
1045.32579	1.38285
1043.39715	1.35156
1041.46850	1.32116
1039.53986	1.29181
1037.61121	1.26343
1035.68256	1.23571
1033.75392	1.20819
1031.82527	1.18050
1029.89663	1.15256
1027.96798	1.12463
1026.03934	1.09717
1024.11069	1.07069
1022.18205	1.04559
1020.25340	1.02214
1018.32476	1.00070
1016.39611	0.98180
1014.46747	0.96607
1012.53882	0.95399
1010.61018	0.94561
1008.68153	0.94040
1006.75288	0.93731
1004.82424	0.93549
1002.89559	0.93492
1000.96695	0.93632
999.03830	0.94045
997.10966	0.94751
995.18101	0.95677
993.25237	0.96652
991.32372	0.97445
989.39508	0.97876
987.46643	0.97878
985.53779	0.97451
983.60914	0.96593
981.68049	0.95286
979.75185	0.93521
977.82320	0.91315
975.89456	0.88709
973.96591	0.85787
972.03727	0.82677
970.10862	0.79508
968.17998	0.76394
966.25133	0.73454
964.32269	0.70804
962.39404	0.68510
960.46540	0.66548
958.53675	0.64823
956.60810	0.63230
954.67946	0.61707
952.75081	0.60261
950.82217	0.58957
948.89352	0.57863
946.96488	0.56985
945.03623	0.56258
943.10759	0.55603
941.17894	0.54986
939.25030	0.54420
937.32165	0.53934
935.39301	0.53547
933.46436	0.53260
931.53571	0.53050
929.60707	0.52861
927.67842	0.52625
925.74978	0.52289
923.82113	0.51823
921.89249	0.51214
919.96384	0.50491
918.03520	0.49730
916.10655	0.49035
914.17791	0.48474
912.24926	0.48062
910.32062	0.47784
908.39197	0.47617
906.46333	0.47531
904.53468	0.47482
902.60603	0.47422
900.67739	0.47329
898.74874	0.47247
896.82010	0.47278
894.89145	0.47533
892.96281	0.48080
891.03416	0.48898
889.10552	0.49874
887.17687	0.50842
885.24823	0.51668
883.31958	0.52318
881.39094	0.52840
879.46229	0.53306
877.53364	0.53761
875.60500	0.54207
873.67635	0.54622
871.74771	0.54989
869.81906	0.55296
867.89042	0.55529
865.96177	0.55678
864.03313	0.55748
862.10448	0.55735
860.17584	0.55607
858.24719	0.55347
856.31855	0.54988
854.38990	0.54569
852.46125	0.54100
850.53261	0.53574
848.60396	0.53012
846.67532	0.52439
844.74667	0.51870
842.81803	0.51335
840.88938	0.50873
838.96074	0.50492
837.03209	0.50160
835.10345	0.49841
833.17480	0.49520
831.24616	0.49199
829.31751	0.48880
827.38886	0.48558
825.46022	0.48210
823.53157	0.47828
821.60293	0.47437
819.67428	0.47083
817.74564	0.46823
815.81699	0.46718
813.88835	0.46806
811.95970	0.47067
810.03106	0.47423
808.10241	0.47758
806.17377	0.47941
804.24512	0.47879
802.31647	0.47608
800.38783	0.47325
798.45918	0.47287
796.53054	0.47654
794.60189	0.48383
792.67325	0.49249
790.74460	0.49951
788.81596	0.50254
786.88731	0.50112
784.95867	0.49691
783.03002	0.49262
781.10138	0.49001
779.17273	0.48909
777.24409	0.48894
775.31544	0.48881
773.38679	0.48824
771.45815	0.48704
769.52950	0.48558
767.60086	0.48439
765.67221	0.48342
763.74357	0.48231
761.81492	0.48152
759.88628	0.48236
757.95763	0.48571
756.02899	0.49108
754.10034	0.49668
752.17170	0.50025
750.24305	0.50048
748.31440	0.49827
746.38576	0.49607
744.45711	0.49592
742.52847	0.49795
740.59982	0.50041
738.67118	0.50093
736.74253	0.49829
734.81389	0.49399
732.88524	0.49163
730.95660	0.49407
729.02795	0.50131
727.09931	0.51081
725.17066	0.51929
723.24201	0.52446
721.31337	0.52589
719.38472	0.52503
717.45608	0.52402
715.52743	0.52425
713.59879	0.52583
711.67014	0.52822
709.74150	0.53090
707.81285	0.53358
705.88421	0.53610
703.95556	0.53842
702.02692	0.54072
700.09827	0.54331
698.16962	0.54657
696.24098	0.55069
694.31233	0.55536
692.38369	0.55970
690.45504	0.56233
688.52640	0.56191
686.59775	0.55787
684.66911	0.55071
682.74046	0.54198
680.81182	0.53413
678.88317	0.53013
676.95453	0.53227
675.02588	0.54098
673.09723	0.55442
671.16859	0.56891
669.23994	0.58006
667.31130	0.58449
665.38265	0.58172
663.45401	0.57446
661.52536	0.56698
659.59672	0.56303
657.66807	0.56443
655.73943	0.57053
653.81078	0.57876
651.88214	0.58617
649.95349	0.59108
648.02485	0.59352
646.09620	0.59468
644.16755	0.59619
642.23891	0.59928
640.31026	0.60404
638.38162	0.60906
636.45297	0.61196
634.52433	0.61085
632.59568	0.60608
630.66704	0.60074
628.73839	0.59961
626.80975	0.60743
624.88110	0.62677
622.95246	0.65502
621.02381	0.68332
619.09516	0.70001
617.16652	0.69623
615.23787	0.66927
613.30923	0.62323
611.38058	0.56861
609.45194	0.51956
607.52329	0.48791
605.59465	0.47861
603.66600	0.49030
601.73736	0.51808
599.80871	0.55499
597.88007	0.59330
595.95142	0.62676
594.02277	0.65197
592.09413	0.66778
590.16548	0.67469
588.23684	0.67502
586.30819	0.67238
584.37955	0.67012
582.45090	0.67006
580.52226	0.67249
578.59361	0.67671
576.66497	0.68185
574.73632	0.68760
572.80768	0.69439
570.87903	0.70281
568.95038	0.71295
567.02174	0.72418
565.09309	0.73541
563.16445	0.74576
561.23580	0.75521
559.30716	0.76480
557.37851	0.77611
555.44987	0.79041
553.52122	0.80805
551.59258	0.82839
549.66393	0.85019
547.73529	0.87212
545.80664	0.89307
543.87800	0.91204
541.94935	0.92803
540.02070	0.94001
538.09206	0.94706
536.16341	0.94876
534.23477	0.94560
532.30612	0.93882
530.37748	0.92973
528.44883	0.91902
526.52019	0.90668
524.59154	0.89244
522.66290	0.87631
520.73425	0.85913
518.80561	0.84241
516.87696	0.82752
514.94831	0.81456
513.01967	0.80206
511.09102	0.78771
509.16238	0.76967
507.23373	0.74776
505.30509	0.72372
503.37644	0.70045
501.44780	0.68046
499.51915	0.66477
497.59051	0.65257
495.66186	0.64193
493.73322	0.63118
491.80457	0.62005
489.87592	0.60997
487.94728	0.60319
486.01863	0.60143
484.08999	0.60481
482.16134	0.61171
480.23270	0.61954
478.30405	0.62596
476.37541	0.62962
474.44676	0.63030
472.51812	0.62836
470.58947	0.62395
468.66083	0.61681
466.73218	0.60682
464.80353	0.59460
462.87489	0.58154
460.94624	0.56926
459.01760	0.55904
457.08895	0.55132
455.16031	0.54551
453.23166	0.54028
451.30302	0.53438
449.37437	0.52716
447.44573	0.51869
445.51708	0.50961
443.58844	0.50080
441.65979	0.49303
439.73114	0.48656
437.80250	0.48098
435.87385	0.47541
433.94521	0.46899
432.01656	0.46125
430.08792	0.45233
428.15927	0.44284
426.23063	0.43363
424.30198	0.42535
422.37334	0.41825
420.44469	0.41229
418.51605	0.40734
416.58740	0.40327
414.65876	0.39994
412.73011	0.39705
410.80146	0.39402
408.87282	0.38997
406.94417	0.38408
405.01553	0.37608
403.08688	0.36635
401.15824	0.35576
399.22959	0.34523
397.30095	0.33542
395.37230	0.32661
393.44366	0.31881
391.51501	0.31190
389.58637	0.30553
387.65772	0.29881
385.72907	0.29016
383.80043	0.27786
381.87178	0.26108
379.94314	0.24084
378.01449	0.22013
376.08585	0.20313
374.15720	0.19362
372.22856	0.19334
370.29991	0.20115
368.37127	0.21356
366.44262	0.22610
364.51398	0.23478
362.58533	0.23715
360.65668	0.23278
358.72804	0.22309
356.79939	0.21057
354.87075	0.19768
352.94210	0.18597
351.01346	0.17584
349.08481	0.16659
347.15617	0.15694
345.22752	0.14599
343.29888	0.13396
341.37023	0.12201
339.44159	0.11125
337.51294	0.10204
335.58429	0.09405
333.65565	0.08667
331.72700	0.07962
329.79836	0.07331
327.86971	0.06878
325.94107	0.06698
324.01242	0.06841
322.08378	0.07234
320.15513	0.07828
318.22649	0.08636
316.29784	0.09683
314.36920	0.10907
312.44055	0.12099
310.51190	0.12952
308.58326	0.13203
306.65461	0.12784
304.72597	0.11888
302.79732	0.10897
300.86868	0.10201
298.94003	0.10014
297.01139	0.10301
295.08274	0.10817
293.15410	0.11206
291.22545	0.11117
289.29681	0.10318
287.36816	0.08805
285.43952	0.06844
283.51087	0.04943
281.58222	0.03694
279.65358	0.03548
277.72493	0.04601
275.79629	0.06557
273.86764	0.08918
271.93900	0.11246
270.01035	0.13324
268.08171	0.15154
266.15306	0.16783
264.22442	0.18139
262.29577	0.18984
260.36713	0.19052
258.43848	0.18262
256.50983	0.16869
254.58119	0.15454
252.65254	0.14732
250.72390	0.15277
248.79525	0.17325
246.86661	0.20695
244.93796	0.24834
243.00932	0.28957
241.08067	0.32276
239.15203	0.34217
237.22338	0.34544
235.29474	0.33376
233.36609	0.31144
231.43744	0.28501
229.50880	0.26181
227.58015	0.24833
225.65151	0.24877
223.72286	0.26406
221.79422	0.29118
219.86557	0.32350
217.93693	0.35262
216.00828	0.37125
214.07964	0.37563
212.15099	0.36675
210.22235	0.35002
208.29370	0.33335
206.36505	0.32425
204.43641	0.32706
202.50776	0.34189
200.57912	0.36502
198.65047	0.39086
196.72183	0.41492
194.79318	0.43595
192.86454	0.45570
190.93589	0.47716
189.00725	0.50253
187.07860	0.53118
185.14996	0.55790
183.22131	0.57312
181.29267	0.56663
179.36402	0.53267
177.43537	0.47419
175.50673	0.40466
173.57808	0.34585
171.64944	0.32074
169.72079	0.34362
167.79215	0.41227
165.86350	0.50689
163.93486	0.59795
162.00621	0.66564
160.07757	0.70215
158.14892	0.71148
156.22028	0.70550
154.29163	0.70550
152.36298	0.70550
150.43434	0.70550
148.50569	0.70550
