4497.60101	0.06002
4495.67236	0.06002
4493.74372	0.06002
4491.81507	0.06002
4489.88643	0.06002
4487.95778	0.06287
4486.02914	0.06654
4484.10049	0.06953
4482.17185	0.07049
4480.24320	0.06876
4478.31455	0.06468
4476.38591	0.05952
4474.45726	0.05496
4472.52862	0.05244
4470.59997	0.05234
4468.67133	0.05399
4466.74268	0.05652
4464.81404	0.05933
4462.88539	0.06189
4460.95675	0.06380
4459.02810	0.06522
4457.09946	0.06694
4455.17081	0.06957
4453.24216	0.07280
4451.31352	0.07546
4449.38487	0.07621
4447.45623	0.07440
4445.52758	0.07026
4443.59894	0.06473
4441.67029	0.05919
4439.74165	0.05508
4437.81300	0.05319
4435.88436	0.05349
4433.95571	0.05554
4432.02707	0.05910
4430.09842	0.06366
4428.16978	0.06815
4426.24113	0.07144
4424.31248	0.07318
4422.38384	0.07365
4420.45519	0.07326
4418.52655	0.07238
4416.59790	0.07130
4414.66926	0.06993
4412.74061	0.06782
4410.81197	0.06487
4408.88332	0.06196
4406.95468	0.06030
4405.02603	0.06036
4403.09739	0.06148
4401.16874	0.06253
4399.24009	0.06257
4397.31145	0.06113
4395.38280	0.05847
4393.45416	0.05555
4391.52551	0.05342
4389.59687	0.05246
4387.66822	0.05226
4385.73958	0.05237
4383.81093	0.05285
4381.88229	0.05408
4379.95364	0.05619
4378.02500	0.05878
4376.09635	0.06137
4374.16770	0.06386
4372.23906	0.06625
4370.31041	0.06838
4368.38177	0.06994
4366.45312	0.07067
4364.52448	0.07023
4362.59583	0.06839
4360.66719	0.06576
4358.73854	0.06387
4356.80990	0.06379
4354.88125	0.06500
4352.95261	0.06607
4351.02396	0.06581
4349.09531	0.06373
4347.16667	0.06014
4345.23802	0.05635
4343.30938	0.05430
4341.38073	0.05519
4339.45209	0.05877
4337.52344	0.06380
4335.59480	0.06884
4333.66615	0.07241
4331.73751	0.07334
4329.80886	0.07138
4327.88022	0.06740
4325.95157	0.06272
4324.02292	0.05848
4322.09428	0.05532
4320.16563	0.05350
4318.23699	0.05308
4316.30834	0.05399
4314.37970	0.05595
4312.45105	0.05833
4310.52241	0.06023
4308.59376	0.06083
4306.66512	0.05980
4304.73647	0.05764
4302.80783	0.05561
4300.87918	0.05508
4298.95054	0.05671
4297.02189	0.05997
4295.09324	0.06358
4293.16460	0.06637
4291.23595	0.06787
4289.30731	0.06815
4287.37866	0.06760
4285.45002	0.06673
4283.52137	0.06577
4281.59273	0.06454
4279.66408	0.06291
4277.73544	0.06111
4275.80679	0.05960
4273.87815	0.05871
4271.94950	0.05847
4270.02085	0.05856
4268.09221	0.05854
4266.16356	0.05828
4264.23492	0.05809
4262.30627	0.05829
4260.37763	0.05902
4258.44898	0.06015
4256.52034	0.06119
4254.59169	0.06138
4252.66305	0.06040
4250.73440	0.05877
4248.80576	0.05737
4246.87711	0.05672
4244.94846	0.05680
4243.01982	0.05715
4241.09117	0.05719
4239.16253	0.05658
4237.23388	0.05573
4235.30524	0.05547
4233.37659	0.05642
4231.44795	0.05844
4229.51930	0.06080
4227.59066	0.06265
4225.66201	0.06357
4223.73337	0.06381
4221.80472	0.06390
4219.87607	0.06406
4217.94743	0.06392
4216.01878	0.06284
4214.09014	0.06058
4212.16149	0.05754
4210.23285	0.05460
4208.30420	0.05281
4206.37556	0.05287
4204.44691	0.05470
4202.51827	0.05732
4200.58962	0.05938
4198.66098	0.05989
4196.73233	0.05865
4194.80368	0.05632
4192.87504	0.05433
4190.94639	0.05414
4189.01775	0.05635
4187.08910	0.06024
4185.16046	0.06432
4183.23181	0.06717
4181.30317	0.06817
4179.37452	0.06769
4177.44588	0.06670
4175.51723	0.06588
4173.58859	0.06508
4171.65994	0.06368
4169.73130	0.06119
4167.80265	0.05763
4165.87400	0.05356
4163.94536	0.04989
4162.01671	0.04753
4160.08807	0.04704
4158.15942	0.04852
4156.23078	0.05151
4154.30213	0.05507
4152.37349	0.05803
4150.44484	0.05964
4148.51620	0.05978
4146.58755	0.05879
4144.65891	0.05710
4142.73026	0.05502
4140.80161	0.05259
4138.87297	0.04969
4136.94432	0.04645
4135.01568	0.04358
4133.08703	0.04203
4131.15839	0.04225
4129.22974	0.04384
4127.30110	0.04602
4125.37245	0.04826
4123.44381	0.05035
4121.51516	0.05217
4119.58652	0.05354
4117.65787	0.05425
4115.72922	0.05412
4113.80058	0.05316
4111.87193	0.05183
4109.94329	0.05100
4108.01464	0.05140
4106.08600	0.05300
4104.15735	0.05506
4102.22871	0.05673
4100.30006	0.05756
4098.37142	0.05762
4096.44277	0.05724
4094.51413	0.05678
4092.58548	0.05631
4090.65683	0.05561
4088.72819	0.05446
4086.79954	0.05294
4084.87090	0.05137
4082.94225	0.05010
4081.01361	0.04938
4079.08496	0.04918
4077.15632	0.04926
4075.22767	0.04937
4073.29903	0.04966
4071.37038	0.05052
4069.44174	0.05209
4067.51309	0.05417
4065.58444	0.05634
4063.65580	0.05804
4061.72715	0.05866
4059.79851	0.05789
4057.86986	0.05605
4055.94122	0.05392
4054.01257	0.05228
4052.08393	0.05168
4050.15528	0.05239
4048.22664	0.05410
4046.29799	0.05583
4044.36935	0.05649
4042.44070	0.05556
4040.51206	0.05343
4038.58341	0.05108
4036.65476	0.04967
4034.72612	0.05006
4032.79747	0.05231
4030.86883	0.05546
4028.94018	0.05815
4027.01154	0.05940
4025.08289	0.05908
4023.15425	0.05774
4021.22560	0.05627
4019.29696	0.05546
4017.36831	0.05572
4015.43967	0.05649
4013.51102	0.05712
4011.58237	0.05710
4009.65373	0.05636
4007.72508	0.05519
4005.79644	0.05406
4003.86779	0.05332
4001.93915	0.05293
4000.01050	0.05271
3998.08186	0.05248
3996.15321	0.05215
3994.22457	0.05177
3992.29592	0.05141
3990.36728	0.05110
3988.43863	0.05074
3986.50998	0.05015
3984.58134	0.04930
3982.65269	0.04838
3980.72405	0.04771
3978.79540	0.04758
3976.86676	0.04803
3974.93811	0.04885
3973.00947	0.04967
3971.08082	0.05023
3969.15218	0.05048
3967.22353	0.05059
3965.29489	0.05090
3963.36624	0.05158
3961.43759	0.05256
3959.50895	0.05350
3957.58030	0.05399
3955.65166	0.05377
3953.72301	0.05287
3951.79437	0.05159
3949.86572	0.05043
3947.93708	0.04985
3946.00843	0.05006
3944.07979	0.05093
3942.15114	0.05212
3940.22250	0.05317
3938.29385	0.05365
3936.36521	0.05330
3934.43656	0.05213
3932.50791	0.05032
3930.57927	0.04816
3928.65062	0.04593
3926.72198	0.04391
3924.79333	0.04242
3922.86469	0.04184
3920.93604	0.04256
3919.00740	0.04473
3917.07875	0.04811
3915.15011	0.05195
3913.22146	0.05510
3911.29282	0.05654
3909.36417	0.05585
3907.43552	0.05353
3905.50688	0.05071
3903.57823	0.04869
3901.64959	0.04832
3899.72094	0.04971
3897.79230	0.05225
3895.86365	0.05488
3893.93501	0.05668
3892.00636	0.05715
3890.07772	0.05638
3888.14907	0.05482
3886.22043	0.05313
3884.29178	0.05187
3882.36313	0.05118
3880.43449	0.05081
3878.50584	0.05029
3876.57720	0.04926
3874.64855	0.04773
3872.71991	0.04607
3870.79126	0.04486
3868.86262	0.04451
3866.93397	0.04493
3865.00533	0.04548
3863.07668	0.04535
3861.14804	0.04408
3859.21939	0.04180
3857.29074	0.03936
3855.36210	0.03790
3853.43345	0.03838
3851.50481	0.04093
3849.57616	0.04467
3847.64752	0.04818
3845.71887	0.05022
3843.79023	0.05033
3841.86158	0.04887
3839.93294	0.04689
3838.00429	0.04550
3836.07565	0.04536
3834.14700	0.04626
3832.21835	0.04750
3830.28971	0.04836
3828.36106	0.04843
3826.43242	0.04780
3824.50377	0.04692
3822.57513	0.04640
3820.64648	0.04658
3818.71784	0.04733
3816.78919	0.04811
3814.86055	0.04829
3812.93190	0.04740
3811.00326	0.04543
3809.07461	0.04287
3807.14597	0.04063
3805.21732	0.03969
3803.28867	0.04075
3801.36003	0.04394
3799.43138	0.04875
3797.50274	0.05415
3795.57409	0.05887
3793.64545	0.06186
3791.71680	0.06260
3789.78816	0.06138
3787.85951	0.05916
3785.93087	0.05715
3784.00222	0.05623
3782.07358	0.05658
3780.14493	0.05760
3778.21628	0.05826
3776.28764	0.05764
3774.35899	0.05551
3772.43035	0.05243
3770.50170	0.04947
3768.57306	0.04766
3766.64441	0.04736
3764.71577	0.04810
3762.78712	0.04871
3760.85848	0.04797
3758.92983	0.04522
3757.00119	0.04063
3755.07254	0.03520
3753.14389	0.03044
3751.21525	0.02781
3749.28660	0.02813
3747.35796	0.03128
3745.42931	0.03633
3743.50067	0.04200
3741.57202	0.04701
3739.64338	0.05056
3737.71473	0.05264
3735.78609	0.05390
3733.85744	0.05514
3731.92880	0.05675
3730.00015	0.05855
3728.07150	0.05998
3726.14286	0.06043
3724.21421	0.05959
3722.28557	0.05769
3720.35692	0.05545
3718.42828	0.05366
3716.49963	0.05290
3714.57099	0.05339
3712.64234	0.05500
3710.71370	0.05742
3708.78505	0.06029
3706.85641	0.06329
3704.92776	0.06629
3702.99911	0.06928
3701.07047	0.07221
3699.14182	0.07486
3697.21318	0.07681
3695.28453	0.07769
3693.35589	0.07749
3691.42724	0.07670
3689.49860	0.07616
3687.56995	0.07660
3685.64131	0.07824
3683.71266	0.08068
3681.78402	0.08314
3679.85537	0.08507
3677.92673	0.08653
3675.99808	0.08826
3674.06943	0.09122
3672.14079	0.09606
3670.21214	0.10284
3668.28350	0.11110
3666.35485	0.12003
3664.42621	0.12883
3662.49756	0.13691
3660.56892	0.14394
3658.64027	0.14998
3656.71163	0.15546
3654.78298	0.16121
3652.85434	0.16824
3650.92569	0.17741
3648.99704	0.18896
3647.06840	0.20235
3645.13975	0.21639
3643.21111	0.22972
3641.28246	0.24145
3639.35382	0.25146
3637.42517	0.26037
3635.49653	0.26923
3633.56788	0.27898
3631.63924	0.29009
3629.71059	0.30250
3627.78195	0.31572
3625.85330	0.32913
3623.92465	0.34210
3621.99601	0.35425
3620.06736	0.36545
3618.13872	0.37584
3616.21007	0.38575
3614.28143	0.39568
3612.35278	0.40608
3610.42414	0.41714
3608.49549	0.42870
3606.56685	0.44033
3604.63820	0.45153
3602.70956	0.46191
3600.78091	0.47142
3598.85226	0.48037
3596.92362	0.48934
3594.99497	0.49892
3593.06633	0.50955
3591.13768	0.52146
3589.20904	0.53458
3587.28039	0.54863
3585.35175	0.56320
3583.42310	0.57781
3581.49446	0.59208
3579.56581	0.60579
3577.63717	0.61887
3575.70852	0.63143
3573.77988	0.64365
3571.85123	0.65577
3569.92258	0.66801
3567.99394	0.68054
3566.06529	0.69348
3564.13665	0.70678
3562.20800	0.72032
3560.27936	0.73385
3558.35071	0.74708
3556.42207	0.75979
3554.49342	0.77195
3552.56478	0.78372
3550.63613	0.79534
3548.70749	0.80710
3546.77884	0.81927
3544.85019	0.83200
3542.92155	0.84524
3540.99290	0.85888
3539.06426	0.87282
3537.13561	0.88700
3535.20697	0.90138
3533.27832	0.91592
3531.34968	0.93051
3529.42103	0.94494
3527.49239	0.95884
3525.56374	0.97188
3523.63510	0.98389
3521.70645	0.99497
3519.77780	1.00555
3517.84916	1.01620
3515.92051	1.02742
3513.99187	1.03950
3512.06322	1.05234
3510.13458	1.06556
3508.20593	1.07862
3506.27729	1.09110
3504.34864	1.10286
3502.42000	1.11398
3500.49135	1.12471
3498.56271	1.13528
3496.63406	1.14586
3494.70541	1.15659
3492.77677	1.16751
3490.84812	1.17861
3488.91948	1.18981
3486.99083	1.20094
3485.06219	1.21184
3483.13354	1.22235
3481.20490	1.23252
3479.27625	1.24254
3477.34761	1.25268
3475.41896	1.26301
3473.49032	1.27343
3471.56167	1.28373
3469.63302	1.29373
3467.70438	1.30337
3465.77573	1.31274
3463.84709	1.32205
3461.91844	1.33139
3459.98980	1.34072
3458.06115	1.34992
3456.13251	1.35895
3454.20386	1.36784
3452.27522	1.37662
3450.34657	1.38528
3448.41793	1.39366
3446.48928	1.40149
3444.56064	1.40870
3442.63199	1.41549
3440.70334	1.42230
3438.77470	1.42955
3436.84605	1.43746
3434.91741	1.44588
3432.98876	1.45426
3431.06012	1.46195
3429.13147	1.46860
3427.20283	1.47433
3425.27418	1.47965
3423.34554	1.48518
3421.41689	1.49136
3419.48825	1.49831
3417.55960	1.50576
3415.63095	1.51325
3413.70231	1.52028
3411.77366	1.52659
3409.84502	1.53210
3407.91637	1.53680
3405.98773	1.54075
3404.05908	1.54412
3402.13044	1.54715
3400.20179	1.55014
3398.27315	1.55332
3396.34450	1.55680
3394.41586	1.56053
3392.48721	1.56437
3390.55856	1.56821
3388.62992	1.57203
3386.70127	1.57585
3384.77263	1.57965
3382.84398	1.58335
3380.91534	1.58677
3378.98669	1.58977
3377.05805	1.59229
3375.12940	1.59436
3373.20076	1.59600
3371.27211	1.59720
3369.34347	1.59795
3367.41482	1.59829
3365.48617	1.59839
3363.55753	1.59843
3361.62888	1.59855
3359.70024	1.59874
3357.77159	1.59893
3355.84295	1.59907
3353.91430	1.59920
3351.98566	1.59942
3350.05701	1.59978
3348.12837	1.60019
3346.19972	1.60040
3344.27108	1.60013
3342.34243	1.59919
3340.41378	1.59765
3338.48514	1.59583
3336.55649	1.59420
3334.62785	1.59319
3332.69920	1.59306
3330.77056	1.59381
3328.84191	1.59520
3326.91327	1.59680
3324.98462	1.59811
3323.05598	1.59874
3321.12733	1.59851
3319.19869	1.59741
3317.27004	1.59565
3315.34140	1.59361
3313.41275	1.59179
3311.48410	1.59059
3309.55546	1.59017
3307.62681	1.59034
3305.69817	1.59066
3303.76952	1.59056
3301.84088	1.58964
3299.91223	1.58789
3297.98359	1.58572
3296.05494	1.58374
3294.12630	1.58240
3292.19765	1.58176
3290.26901	1.58150
3288.34036	1.58114
3286.41171	1.58027
3284.48307	1.57872
3282.55442	1.57664
3280.62578	1.57435
3278.69713	1.57205
3276.76849	1.56971
3274.83984	1.56714
3272.91120	1.56405
3270.98255	1.56027
3269.05391	1.55581
3267.12526	1.55096
3265.19662	1.54609
3263.26797	1.54146
3261.33932	1.53705
3259.41068	1.53261
3257.48203	1.52775
3255.55339	1.52219
3253.62474	1.51598
3251.69610	1.50956
3249.76745	1.50359
3247.83881	1.49863
3245.91016	1.49485
3243.98152	1.49192
3242.05287	1.48904
3240.12423	1.48535
3238.19558	1.48032
3236.26693	1.47405
3234.33829	1.46713
3232.40964	1.46038
3230.48100	1.45436
3228.55235	1.44920
3226.62371	1.44457
3224.69506	1.44002
3222.76642	1.43521
3220.83777	1.43003
3218.90913	1.42449
3216.98048	1.41857
3215.05184	1.41220
3213.12319	1.40537
3211.19455	1.39825
3209.26590	1.39120
3207.33725	1.38462
3205.40861	1.37872
3203.47996	1.37334
3201.55132	1.36805
3199.62267	1.36236
3197.69403	1.35594
3195.76538	1.34872
3193.83674	1.34086
3191.90809	1.33267
3189.97945	1.32450
3188.05080	1.31670
3186.12216	1.30948
3184.19351	1.30287
3182.26486	1.29666
3180.33622	1.29046
3178.40757	1.28390
3176.47893	1.27680
3174.55028	1.26925
3172.62164	1.26149
3170.69299	1.25377
3168.76435	1.24616
3166.83570	1.23862
3164.90706	1.23108
3162.97841	1.22354
3161.04977	1.21607
3159.12112	1.20885
3157.19247	1.20204
3155.26383	1.19571
3153.33518	1.18981
3151.40654	1.18426
3149.47789	1.17893
3147.54925	1.17358
3145.62060	1.16782
3143.69196	1.16134
3141.76331	1.15398
3139.83467	1.14587
3137.90602	1.13737
3135.97738	1.12899
3134.04873	1.12125
3132.12008	1.11432
3130.19144	1.10809
3128.26279	1.10219
3126.33415	1.09635
3124.40550	1.09043
3122.47686	1.08452
3120.54821	1.07882
3118.61957	1.07346
3116.69092	1.06841
3114.76228	1.06343
3112.83363	1.05827
3110.90499	1.05280
3108.97634	1.04710
3107.04769	1.04127
3105.11905	1.03537
3103.19040	1.02940
3101.26176	1.02335
3099.33311	1.01728
3097.40447	1.01143
3095.47582	1.00613
3093.54718	1.00165
3091.61853	0.99799
3089.68989	0.99485
3087.76124	0.99180
3085.83260	0.98843
3083.90395	0.98449
3081.97531	0.97992
3080.04666	0.97482
3078.11801	0.96933
3076.18937	0.96360
3074.26072	0.95774
3072.33208	0.95190
3070.40343	0.94617
3068.47479	0.94057
3066.54614	0.93496
3064.61750	0.92914
3062.68885	0.92294
3060.76021	0.91630
3058.83156	0.90937
3056.90292	0.90248
3054.97427	0.89603
3053.04562	0.89029
3051.11698	0.88527
3049.18833	0.88072
3047.25969	0.87625
3045.33104	0.87146
3043.40240	0.86616
3041.47375	0.86041
3039.54511	0.85454
3037.61646	0.84895
3035.68782	0.84402
3033.75917	0.83986
3031.83053	0.83637
3029.90188	0.83324
3027.97323	0.83009
3026.04459	0.82660
3024.11594	0.82256
3022.18730	0.81797
3020.25865	0.81306
3018.33001	0.80814
3016.40136	0.80351
3014.47272	0.79938
3012.54407	0.79581
3010.61543	0.79270
3008.68678	0.78984
3006.75814	0.78697
3004.82949	0.78382
3002.90084	0.78023
3000.97220	0.77632
2999.04355	0.77243
2997.11491	0.76900
2995.18626	0.76659
2993.25762	0.76564
2991.32897	0.76630
2989.40033	0.76830
2987.47168	0.77124
2985.54304	0.77471
2983.61439	0.77831
2981.68575	0.78171
2979.75710	0.78481
2977.82845	0.78790
2975.89981	0.79156
2973.97116	0.79650
2972.04252	0.80316
2970.11387	0.81153
2968.18523	0.82106
2966.25658	0.83073
2964.32794	0.83929
2962.39929	0.84568
2960.47065	0.84943
2958.54200	0.85051
2956.61336	0.84927
2954.68471	0.84641
2952.75607	0.84291
2950.82742	0.83983
2948.89877	0.83811
2946.97013	0.83839
2945.04148	0.84091
2943.11284	0.84548
2941.18419	0.85176
2939.25555	0.85935
2937.32690	0.86769
2935.39826	0.87638
2933.46961	0.88526
2931.54097	0.89425
2929.61232	0.90305
2927.68368	0.91111
2925.75503	0.91762
2923.82638	0.92128
2921.89774	0.92043
2919.96909	0.91373
2918.04045	0.90085
2916.11180	0.88265
2914.18316	0.86105
2912.25451	0.83865
2910.32587	0.81794
2908.39722	0.80053
2906.46858	0.78680
2904.53993	0.77612
2902.61129	0.76741
2900.68264	0.75966
2898.75399	0.75230
2896.82535	0.74526
2894.89670	0.73876
2892.96806	0.73305
2891.03941	0.72817
2889.11077	0.72396
2887.18212	0.72019
2885.25348	0.71675
2883.32483	0.71380
2881.39619	0.71171
2879.46754	0.71068
2877.53890	0.71045
2875.61025	0.71033
2873.68160	0.70950
2871.75296	0.70730
2869.82431	0.70363
2867.89567	0.69919
2865.96702	0.69522
2864.03838	0.69294
2862.10973	0.69314
2860.18109	0.69596
2858.25244	0.70070
2856.32380	0.70583
2854.39515	0.70934
2852.46651	0.70927
2850.53786	0.70419
2848.60922	0.69373
2846.68057	0.67882
2844.75192	0.66141
2842.82328	0.64374
2840.89463	0.62765
2838.96599	0.61421
2837.03734	0.60357
2835.10870	0.59519
2833.18005	0.58829
2831.25141	0.58235
2829.32276	0.57723
2827.39412	0.57295
2825.46547	0.56947
2823.53683	0.56659
2821.60818	0.56385
2819.67953	0.56068
2817.75089	0.55668
2815.82224	0.55198
2813.89360	0.54713
2811.96495	0.54268
2810.03631	0.53884
2808.10766	0.53556
2806.17902	0.53250
2804.25037	0.52927
2802.32173	0.52568
2800.39308	0.52207
2798.46444	0.51903
2796.53579	0.51687
2794.60714	0.51550
2792.67850	0.51451
2790.74985	0.51336
2788.82121	0.51153
2786.89256	0.50880
2784.96392	0.50550
2783.03527	0.50234
2781.10663	0.49982
2779.17798	0.49797
2777.24934	0.49658
2775.32069	0.49531
2773.39205	0.49383
2771.46340	0.49197
2769.53475	0.48997
2767.60611	0.48815
2765.67746	0.48652
2763.74882	0.48474
2761.82017	0.48257
2759.89153	0.48002
2757.96288	0.47731
2756.03424	0.47479
2754.10559	0.47283
2752.17695	0.47150
2750.24830	0.47042
2748.31966	0.46910
2746.39101	0.46736
2744.46236	0.46539
2742.53372	0.46359
2740.60507	0.46226
2738.67643	0.46147
2736.74778	0.46101
2734.81914	0.46047
2732.89049	0.45953
2730.96185	0.45810
2729.03320	0.45627
2727.10456	0.45415
2725.17591	0.45178
2723.24727	0.44913
2721.31862	0.44621
2719.38998	0.44308
2717.46133	0.44005
2715.53268	0.43743
2713.60404	0.43545
2711.67539	0.43416
2709.74675	0.43351
2707.81810	0.43325
2705.88946	0.43295
2703.96081	0.43229
2702.03217	0.43113
2700.10352	0.42952
2698.17488	0.42755
2696.24623	0.42538
2694.31759	0.42315
2692.38894	0.42095
2690.46029	0.41872
2688.53165	0.41644
2686.60300	0.41423
2684.67436	0.41220
2682.74571	0.41046
2680.81707	0.40899
2678.88842	0.40776
2676.95978	0.40674
2675.03113	0.40583
2673.10249	0.40487
2671.17384	0.40375
2669.24520	0.40232
2667.31655	0.40040
2665.38790	0.39791
2663.45926	0.39496
2661.53061	0.39189
2659.60197	0.38917
2657.67332	0.38716
2655.74468	0.38591
2653.81603	0.38506
2651.88739	0.38412
2649.95874	0.38276
2648.03010	0.38087
2646.10145	0.37865
2644.17281	0.37653
2642.24416	0.37480
2640.31551	0.37332
2638.38687	0.37182
2636.45822	0.37017
2634.52958	0.36843
2632.60093	0.36656
2630.67229	0.36453
2628.74364	0.36240
2626.81500	0.36021
2624.88635	0.35794
2622.95771	0.35572
2621.02906	0.35381
2619.10042	0.35224
2617.17177	0.35070
2615.24312	0.34881
2613.31448	0.34640
2611.38583	0.34361
2609.45719	0.34077
2607.52854	0.33841
2605.59990	0.33706
2603.67125	0.33680
2601.74261	0.33716
2599.81396	0.33738
2597.88532	0.33679
2595.95667	0.33516
2594.02803	0.33275
2592.09938	0.33034
2590.17074	0.32883
2588.24209	0.32866
2586.31344	0.32940
2584.38480	0.33011
2582.45615	0.33001
2580.52751	0.32887
2578.59886	0.32713
2576.67022	0.32582
2574.74157	0.32605
2572.81293	0.32819
2570.88428	0.33142
2568.95564	0.33422
2567.02699	0.33520
2565.09835	0.33361
2563.16970	0.32959
2561.24105	0.32420
2559.31241	0.31886
2557.38376	0.31441
2555.45512	0.31086
2553.52647	0.30789
2551.59783	0.30542
2549.66918	0.30375
2547.74054	0.30338
2545.81189	0.30472
2543.88325	0.30762
2541.95460	0.31119
2540.02596	0.31417
2538.09731	0.31562
2536.16866	0.31550
2534.24002	0.31452
2532.31137	0.31359
2530.38273	0.31336
2528.45408	0.31395
2526.52544	0.31488
2524.59679	0.31530
2522.66815	0.31466
2520.73950	0.31313
2518.81086	0.31139
2516.88221	0.31012
2514.95357	0.30970
2513.02492	0.31004
2511.09627	0.31061
2509.16763	0.31080
2507.23898	0.31048
2505.31034	0.30996
2503.38169	0.30962
2501.45305	0.30955
2499.52440	0.30946
2497.59576	0.30895
2495.66711	0.30780
2493.73847	0.30623
2491.80982	0.30475
2489.88118	0.30393
2487.95253	0.30411
2486.02389	0.30514
2484.09524	0.30656
2482.16659	0.30780
2480.23795	0.30843
2478.30930	0.30814
2476.38066	0.30694
2474.45201	0.30524
2472.52337	0.30370
2470.59472	0.30294
2468.66608	0.30335
2466.73743	0.30488
2464.80879	0.30708
2462.88014	0.30940
2460.95150	0.31142
2459.02285	0.31284
2457.09420	0.31344
2455.16556	0.31318
2453.23691	0.31219
2451.30827	0.31069
2449.37962	0.30902
2447.45098	0.30766
2445.52233	0.30687
2443.59369	0.30643
2441.66504	0.30593
2439.73640	0.30518
2437.80775	0.30431
2435.87911	0.30349
2433.95046	0.30291
2432.02181	0.30278
2430.09317	0.30312
2428.16452	0.30376
2426.23588	0.30452
2424.30723	0.30532
2422.37859	0.30606
2420.44994	0.30658
2418.52130	0.30671
2416.59265	0.30643
2414.66401	0.30596
2412.73536	0.30562
2410.80672	0.30561
2408.87807	0.30584
2406.94942	0.30618
2405.02078	0.30654
2403.09213	0.30686
2401.16349	0.30716
2399.23484	0.30763
2397.30620	0.30844
2395.37755	0.30952
2393.44891	0.31057
2391.52026	0.31126
2389.59162	0.31139
2387.66297	0.31085
2385.73433	0.30959
2383.80568	0.30769
2381.87703	0.30537
2379.94839	0.30321
2378.01974	0.30198
2376.09110	0.30242
2374.16245	0.30488
2372.23381	0.30896
2370.30516	0.31331
2368.37652	0.31612
2366.44787	0.31584
2364.51923	0.31206
2362.59058	0.30563
2360.66194	0.29824
2358.73329	0.29162
2356.80465	0.28693
2354.87600	0.28452
2352.94735	0.28402
2351.01871	0.28467
2349.09006	0.28578
2347.16142	0.28686
2345.23277	0.28771
2343.30413	0.28838
2341.37548	0.28907
2339.44684	0.29010
2337.51819	0.29163
2335.58955	0.29335
2333.66090	0.29452
2331.73226	0.29430
2329.80361	0.29213
2327.87496	0.28806
2325.94632	0.28279
2324.01767	0.27740
2322.08903	0.27291
2320.16038	0.26995
2318.23174	0.26864
2316.30309	0.26882
2314.37445	0.27024
2312.44580	0.27265
2310.51716	0.27581
2308.58851	0.27942
2306.65987	0.28309
2304.73122	0.28636
2302.80257	0.28887
2300.87393	0.29051
2298.94528	0.29134
2297.01664	0.29155
2295.08799	0.29134
2293.15935	0.29091
2291.23070	0.29048
2289.30206	0.29023
2287.37341	0.29021
2285.44477	0.29031
2283.51612	0.29007
2281.58748	0.28884
2279.65883	0.28601
2277.73018	0.28140
2275.80154	0.27546
2273.87289	0.26920
2271.94425	0.26383
2270.01560	0.26018
2268.08696	0.25846
2266.15831	0.25821
2264.22967	0.25864
2262.30102	0.25914
2260.37238	0.25978
2258.44373	0.26090
2256.51509	0.26236
2254.58644	0.26339
2252.65779	0.26310
2250.72915	0.26113
2248.80050	0.25799
2246.87186	0.25494
2244.94321	0.25354
2243.01457	0.25453
2241.08592	0.25703
2239.15728	0.25910
2237.22863	0.25913
2235.29999	0.25656
2233.37134	0.25158
2231.44270	0.24457
2229.51405	0.23629
2227.58541	0.22807
2225.65676	0.22137
2223.72811	0.21721
2221.79947	0.21594
2219.87082	0.21705
2217.94218	0.21884
2216.01353	0.21904
2214.08489	0.21631
2212.15624	0.21130
2210.22760	0.20581
2208.29895	0.20104
2206.37031	0.19682
2204.44166	0.19262
2202.51302	0.18869
2200.58437	0.18565
2198.65572	0.18318
2196.72708	0.17972
2194.79843	0.17320
2192.86979	0.16204
2190.94114	0.14659
2189.01250	0.13085
2187.08385	0.12167
2185.15521	0.12441
2183.22656	0.13854
2181.29792	0.15696
2179.36927	0.16967
2177.44063	0.16944
2175.51198	0.15578
2173.58333	0.13493
2171.65469	0.11587
2169.72604	0.10577
2167.79740	0.10665
2165.86875	0.11351
2163.94011	0.11647
2162.01146	0.10741
2160.08282	0.08577
2158.15417	0.05798
2156.22553	0.03293
2154.29688	0.01922
2152.36824	0.02282
2150.43959	0.04321
2148.51094	0.07279
2146.58230	0.10224
2144.65365	0.12608
2142.72501	0.14308
2140.79636	0.15421
2138.86772	0.16188
2136.93907	0.16899
2135.01043	0.17674
2133.08178	0.18409
2131.15314	0.18980
2129.22449	0.19387
2127.29585	0.19721
2125.36720	0.20067
2123.43856	0.20462
2121.50991	0.20862
2119.58126	0.21142
2117.65262	0.21144
2115.72397	0.20789
2113.79533	0.20177
2111.86668	0.19563
2109.93804	0.19234
2108.00939	0.19380
2106.08075	0.20023
2104.15210	0.20979
2102.22346	0.21878
2100.29481	0.22326
2098.36617	0.22150
2096.43752	0.21453
2094.50887	0.20511
2092.58023	0.19647
2090.65158	0.19122
2088.72294	0.19033
2086.79429	0.19269
2084.86565	0.19594
2082.93700	0.19798
2081.00836	0.19778
2079.07971	0.19522
2077.15107	0.19077
2075.22242	0.18529
2073.29378	0.17987
2071.36513	0.17552
2069.43648	0.17293
2067.50784	0.17241
2065.57919	0.17374
2063.65055	0.17593
2061.72190	0.17725
2059.79326	0.17580
2057.86461	0.17048
2055.93597	0.16170
2054.00732	0.15145
2052.07868	0.14262
2050.15003	0.13756
2048.22139	0.13660
2046.29274	0.13739
2044.36409	0.13589
2042.43545	0.12851
2040.50680	0.11414
2038.57816	0.09434
2036.64951	0.07458
2034.72087	0.06029
2032.79222	0.05497
2030.86358	0.05919
2028.93493	0.07114
2027.00629	0.08803
2025.07764	0.10702
2023.14900	0.12546
2021.22035	0.14098
2019.29170	0.15145
2017.36306	0.15542
2015.43441	0.15295
2013.50577	0.14611
2011.57712	0.13823
2009.64848	0.13227
2007.71983	0.12950
2005.79119	0.12934
2003.86254	0.13024
2001.93390	0.13129
2000.00525	0.13297
1998.07661	0.13671
1996.14796	0.14349
1994.21932	0.15294
1992.29067	0.16312
1990.36202	0.17129
1988.43338	0.17516
1986.50473	0.17388
1984.57609	0.16809
1982.64744	0.15919
1980.71880	0.14883
1978.79015	0.13869
1976.86151	0.13038
1974.93286	0.12529
1973.00422	0.12416
1971.07557	0.12673
1969.14693	0.13186
1967.21828	0.13826
1965.28963	0.14544
1963.36099	0.15389
1961.43234	0.16431
1959.50370	0.17644
1957.57505	0.18847
1955.64641	0.19735
1953.71776	0.20018
1951.78912	0.19590
1949.86047	0.18632
1947.93183	0.17523
1946.00318	0.16642
1944.07454	0.16194
1942.14589	0.16165
1940.21724	0.16374
1938.28860	0.16595
1936.35995	0.16695
1934.43131	0.16690
1932.50266	0.16708
1930.57402	0.16892
1928.64537	0.17320
1926.71673	0.17972
1924.78808	0.18732
1922.85944	0.19431
1920.93079	0.19905
1919.00215	0.20060
1917.07350	0.19897
1915.14485	0.19498
1913.21621	0.18994
1911.28756	0.18520
1909.35892	0.18165
1907.43027	0.17958
1905.50163	0.17880
1903.57298	0.17891
1901.64434	0.17948
1899.71569	0.18018
1897.78705	0.18084
1895.85840	0.18136
1893.92976	0.18169
1892.00111	0.18181
1890.07246	0.18183
1888.14382	0.18204
1886.21517	0.18280
1884.28653	0.18435
1882.35788	0.18666
1880.42924	0.18935
1878.50059	0.19180
1876.57195	0.19350
1874.64330	0.19419
1872.71466	0.19396
1870.78601	0.19300
1868.85737	0.19148
1866.92872	0.18950
1865.00008	0.18722
1863.07143	0.18501
1861.14278	0.18347
1859.21414	0.18312
1857.28549	0.18403
1855.35685	0.18571
1853.42820	0.18725
1851.49956	0.18784
1849.57091	0.18719
1847.64227	0.18568
1845.71362	0.18410
1843.78498	0.18320
1841.85633	0.18342
1839.92769	0.18473
1837.99904	0.18669
1836.07039	0.18877
1834.14175	0.19056
1832.21310	0.19186
1830.28446	0.19263
1828.35581	0.19302
1826.42717	0.19323
1824.49852	0.19345
1822.56988	0.19373
1820.64123	0.19402
1818.71259	0.19426
1816.78394	0.19442
1814.85530	0.19455
1812.92665	0.19477
1810.99800	0.19525
1809.06936	0.19606
1807.14071	0.19712
1805.21207	0.19818
1803.28342	0.19897
1801.35478	0.19930
1799.42613	0.19919
1797.49749	0.19881
1795.56884	0.19846
1793.64020	0.19846
1791.71155	0.19904
1789.78291	0.20023
1787.85426	0.20189
1785.92561	0.20381
1783.99697	0.20572
1782.06832	0.20729
1780.13968	0.20830
1778.21103	0.20870
1776.28239	0.20873
1774.35374	0.20888
1772.42510	0.20977
1770.49645	0.21192
1768.56781	0.21557
1766.63916	0.22056
1764.71052	0.22641
1762.78187	0.23258
1760.85322	0.23868
1758.92458	0.24459
1756.99593	0.25053
1755.06729	0.25695
1753.13864	0.26437
1751.21000	0.27316
1749.28135	0.28341
1747.35271	0.29471
1745.42406	0.30624
1743.49542	0.31702
1741.56677	0.32626
1739.63813	0.33368
1737.70948	0.33964
1735.78084	0.34498
1733.85219	0.35061
1731.92354	0.35701
1729.99490	0.36397
1728.06625	0.37073
1726.13761	0.37649
1724.20896	0.38086
1722.28032	0.38417
1720.35167	0.38740
1718.42303	0.39170
1716.49438	0.39782
1714.56574	0.40569
1712.63709	0.41446
1710.70845	0.42297
1708.77980	0.43040
1706.85115	0.43676
1704.92251	0.44299
1702.99386	0.45068
1701.06522	0.46155
1699.13657	0.47670
1697.20793	0.49616
1695.27928	0.51894
1693.35064	0.54349
1691.42199	0.56845
1689.49335	0.59313
1687.56470	0.61767
1685.63606	0.64274
1683.70741	0.66900
1681.77876	0.69657
1679.85012	0.72488
1677.92147	0.75315
1675.99283	0.78084
1674.06418	0.80794
1672.13554	0.83494
1670.20689	0.86248
1668.27825	0.89094
1666.34960	0.91989
1664.42096	0.94815
1662.49231	0.97410
1660.56367	0.99636
1658.63502	1.01417
1656.70637	1.02765
1654.77773	1.03781
1652.84908	1.04604
1650.92044	1.05344
1648.99179	1.06029
1647.06315	1.06613
1645.13450	1.07008
1643.20586	1.07137
1641.27721	1.06973
1639.34857	1.06559
1637.41992	1.05985
1635.49128	1.05341
1633.56263	1.04676
1631.63399	1.03991
1629.70534	1.03259
1627.77669	1.02455
1625.84805	1.01577
1623.91940	1.00661
1621.99076	0.99774
1620.06211	0.98989
1618.13347	0.98368
1616.20482	0.97938
1614.27618	0.97683
1612.34753	0.97546
1610.41889	0.97445
1608.49024	0.97297
1606.56160	0.97034
1604.63295	0.96616
1602.70430	0.96034
1600.77566	0.95304
1598.84701	0.94452
1596.91837	0.93502
1594.98972	0.92473
1593.06108	0.91383
1591.13243	0.90240
1589.20379	0.89043
1587.27514	0.87787
1585.34650	0.86469
1583.41785	0.85106
1581.48921	0.83729
1579.56056	0.82389
1577.63191	0.81149
1575.70327	0.80064
1573.77462	0.79152
1571.84598	0.78376
1569.91733	0.77653
1567.98869	0.76887
1566.06004	0.76009
1564.13140	0.75012
1562.20275	0.73964
1560.27411	0.72982
1558.34546	0.72175
1556.41682	0.71576
1554.48817	0.71111
1552.55952	0.70627
1550.63088	0.69953
1548.70223	0.68973
1546.77359	0.67679
1544.84494	0.66174
1542.91630	0.64629
1540.98765	0.63210
1539.05901	0.62014
1537.13036	0.61034
1535.20172	0.60185
1533.27307	0.59355
1531.34443	0.58462
1529.41578	0.57497
1527.48713	0.56515
1525.55849	0.55616
1523.62984	0.54878
1521.70120	0.54309
1519.77255	0.53821
1517.84391	0.53249
1515.91526	0.52421
1513.98662	0.51232
1512.05797	0.49694
1510.12933	0.47936
1508.20068	0.46153
1506.27204	0.44530
1504.34339	0.43171
1502.41475	0.42070
1500.48610	0.41145
1498.55745	0.40301
1496.62881	0.39478
1494.70016	0.38665
1492.77152	0.37896
1490.84287	0.37229
1488.91423	0.36719
1486.98558	0.36395
1485.05694	0.36261
1483.12829	0.36314
1481.19965	0.36566
1479.27100	0.37054
1477.34236	0.37828
1475.41371	0.38931
1473.48506	0.40360
1471.55642	0.42027
1469.62777	0.43756
1467.69913	0.45327
1465.77048	0.46554
1463.84184	0.47350
1461.91319	0.47746
1459.98455	0.47867
1458.05590	0.47870
1456.12726	0.47884
1454.19861	0.47952
1452.26997	0.48045
1450.34132	0.48100
1448.41267	0.48065
1446.48403	0.47930
1444.55538	0.47732
1442.62674	0.47547
1440.69809	0.47465
1438.76945	0.47564
1436.84080	0.47892
1434.91216	0.48458
1432.98351	0.49228
1431.05487	0.50141
1429.12622	0.51130
1427.19758	0.52145
1425.26893	0.53165
1423.34028	0.54197
1421.41164	0.55263
1419.48299	0.56381
1417.55435	0.57543
1415.62570	0.58718
1413.69706	0.59858
1411.76841	0.60909
1409.83977	0.61816
1407.91112	0.62535
1405.98248	0.63031
1404.05383	0.63291
1402.12519	0.63329
1400.19654	0.63179
1398.26789	0.62892
1396.33925	0.62518
1394.41060	0.62101
1392.48196	0.61665
1390.55331	0.61224
1388.62467	0.60784
1386.69602	0.60350
1384.76738	0.59921
1382.83873	0.59487
1380.91009	0.59029
1378.98144	0.58524
1377.05280	0.57951
1375.12415	0.57301
1373.19551	0.56571
1371.26686	0.55771
1369.33821	0.54920
1367.40957	0.54048
1365.48092	0.53188
1363.55228	0.52379
1361.62363	0.51652
1359.69499	0.51021
1357.76634	0.50481
1355.83770	0.50009
1353.90905	0.49575
1351.98041	0.49152
1350.05176	0.48718
1348.12312	0.48267
1346.19447	0.47798
1344.26582	0.47311
1342.33718	0.46814
1340.40853	0.46317
1338.47989	0.45835
1336.55124	0.45387
1334.62260	0.44993
1332.69395	0.44662
1330.76531	0.44395
1328.83666	0.44179
1326.90802	0.43995
1324.97937	0.43826
1323.05073	0.43654
1321.12208	0.43465
1319.19343	0.43253
1317.26479	0.43018
1315.33614	0.42770
1313.40750	0.42529
1311.47885	0.42321
1309.55021	0.42168
1307.62156	0.42079
1305.69292	0.42052
1303.76427	0.42071
1301.83563	0.42121
1299.90698	0.42189
1297.97834	0.42270
1296.04969	0.42368
1294.12104	0.42491
1292.19240	0.42646
1290.26375	0.42838
1288.33511	0.43073
1286.40646	0.43356
1284.47782	0.43690
1282.54917	0.44075
1280.62053	0.44505
1278.69188	0.44967
1276.76324	0.45444
1274.83459	0.45920
1272.90595	0.46389
1270.97730	0.46852
1269.04866	0.47314
1267.12001	0.47775
1265.19136	0.48229
1263.26272	0.48658
1261.33407	0.49043
1259.40543	0.49362
1257.47678	0.49604
1255.54814	0.49761
1253.61949	0.49831
1251.69085	0.49818
1249.76220	0.49734
1247.83356	0.49604
1245.90491	0.49455
1243.97627	0.49318
1242.04762	0.49213
1240.11897	0.49143
1238.19033	0.49096
1236.26168	0.49053
1234.33304	0.48993
1232.40439	0.48904
1230.47575	0.48779
1228.54710	0.48619
1226.61846	0.48430
1224.68981	0.48215
1222.76117	0.47984
1220.83252	0.47749
1218.90388	0.47533
1216.97523	0.47367
1215.04658	0.47281
1213.11794	0.47302
1211.18929	0.47433
1209.26065	0.47655
1207.33200	0.47927
1205.40336	0.48197
1203.47471	0.48426
1201.54607	0.48609
1199.61742	0.48784
1197.68878	0.49016
1195.76013	0.49384
1193.83149	0.49963
1191.90284	0.50795
1189.97419	0.51892
1188.04555	0.53240
1186.11690	0.54815
1184.18826	0.56588
1182.25961	0.58528
1180.33097	0.60618
1178.40232	0.62843
1176.47368	0.65186
1174.54503	0.67639
1172.61639	0.70203
1170.68774	0.72859
1168.75910	0.75553
1166.83045	0.78205
1164.90180	0.80717
1162.97316	0.82987
1161.04451	0.84963
1159.11587	0.86681
1157.18722	0.88264
1155.25858	0.89854
1153.32993	0.91555
1151.40129	0.93407
1149.47264	0.95388
1147.54400	0.97453
1145.61535	0.99591
1143.68671	1.01864
1141.75806	1.04376
1139.82942	1.07213
1137.90077	1.10385
1135.97212	1.13826
1134.04348	1.17417
1132.11483	1.21045
1130.18619	1.24632
1128.25754	1.28138
1126.32890	1.31550
1124.40025	1.34847
1122.47161	1.38003
1120.54296	1.41003
1118.61432	1.43859
1116.68567	1.46617
1114.75703	1.49339
1112.82838	1.52079
1110.89973	1.54862
1108.97109	1.57679
1107.04244	1.60508
1105.11380	1.63347
1103.18515	1.66219
1101.25651	1.69147
1099.32786	1.72147
1097.39922	1.75216
1095.47057	1.78338
1093.54193	1.81473
1091.61328	1.84575
1089.68464	1.87599
1087.75599	1.90501
1085.82734	1.93210
1083.89870	1.95613
1081.97005	1.97578
1080.04141	1.98999
1078.11276	1.99809
1076.18412	2.00000
1074.25547	1.99634
1072.32683	1.98833
1070.39818	1.97727
1068.46954	1.96412
1066.54089	1.94944
1064.61225	1.93360
1062.68360	1.91695
1060.75495	1.89989
1058.82631	1.88302
1056.89766	1.86696
1054.96902	1.85210
1053.04037	1.83842
1051.11173	1.82575
1049.18308	1.81397
1047.25444	1.80318
1045.32579	1.79367
1043.39715	1.78579
1041.46850	1.77963
1039.53986	1.77464
1037.61121	1.76959
1035.68256	1.76299
1033.75392	1.75340
1031.82527	1.73977
1029.89663	1.72165
1027.96798	1.69940
1026.03934	1.67401
1024.11069	1.64670
1022.18205	1.61861
1020.25340	1.59076
1018.32476	1.56380
1016.39611	1.53787
1014.46747	1.51276
1012.53882	1.48817
1010.61018	1.46387
1008.68153	1.43991
1006.75288	1.41685
1004.82424	1.39563
1002.89559	1.37718
1000.96695	1.36205
999.03830	1.35037
997.10966	1.34175
995.18101	1.33525
993.25237	1.32942
991.32372	1.32262
989.39508	1.31318
987.46643	1.29953
985.53779	1.28048
983.60914	1.25559
981.68049	1.22527
979.75185	1.19035
977.82320	1.15186
975.89456	1.11082
973.96591	1.06824
972.03727	1.02503
970.10862	0.98193
968.17998	0.93958
966.25133	0.89862
964.32269	0.85960
962.39404	0.82304
960.46540	0.78962
958.53675	0.76023
956.60810	0.73544
954.67946	0.71525
952.75081	0.69907
950.82217	0.68579
948.89352	0.67405
946.96488	0.66269
945.03623	0.65133
943.10759	0.64033
941.17894	0.63029
939.25030	0.62170
937.32165	0.61476
935.39301	0.60919
933.46436	0.60438
931.53571	0.59978
929.60707	0.59513
927.67842	0.59036
925.74978	0.58552
923.82113	0.58068
921.89249	0.57575
919.96384	0.57045
918.03520	0.56456
916.10655	0.55809
914.17791	0.55142
912.24926	0.54501
910.32062	0.53914
908.39197	0.53385
906.46333	0.52901
904.53468	0.52449
902.60603	0.52007
900.67739	0.51542
898.74874	0.51038
896.82010	0.50503
894.89145	0.49942
892.96281	0.49368
891.03416	0.48838
889.10552	0.48430
887.17687	0.48161
885.24823	0.47955
883.31958	0.47720
881.39094	0.47439
879.46229	0.47173
877.53364	0.47007
875.60500	0.47007
873.67635	0.47148
871.74771	0.47275
869.81906	0.47160
867.89042	0.46659
865.96177	0.45842
864.03313	0.44948
862.10448	0.44233
860.17584	0.43839
858.24719	0.43735
856.31855	0.43750
854.38990	0.43686
852.46125	0.43441
850.53261	0.43053
848.60396	0.42635
846.67532	0.42268
844.74667	0.41957
842.81803	0.41652
840.88938	0.41294
838.96074	0.40866
837.03209	0.40406
835.10345	0.39971
833.17480	0.39589
831.24616	0.39253
829.31751	0.38934
827.38886	0.38600
825.46022	0.38241
823.53157	0.37899
821.60293	0.37644
819.67428	0.37523
817.74564	0.37560
815.81699	0.37780
813.88835	0.38231
811.95970	0.38975
810.03106	0.40091
808.10241	0.41648
806.17377	0.43629
804.24512	0.45846
802.31647	0.47970
800.38783	0.49639
798.45918	0.50572
796.53054	0.50654
794.60189	0.49998
792.67325	0.48945
790.74460	0.47948
788.81596	0.47408
786.88731	0.47545
784.95867	0.48339
783.03002	0.49529
781.10138	0.50701
779.17273	0.51438
777.24409	0.51484
775.31544	0.50827
773.38679	0.49682
771.45815	0.48370
769.52950	0.47162
767.60086	0.46200
765.67221	0.45508
763.74357	0.45037
761.81492	0.44721
759.88628	0.44517
757.95763	0.44425
756.02899	0.44456
754.10034	0.44583
752.17170	0.44749
750.24305	0.44895
748.31440	0.44978
746.38576	0.44961
744.45711	0.44829
742.52847	0.44600
740.59982	0.44325
738.67118	0.44077
736.74253	0.43925
734.81389	0.43891
732.88524	0.43947
730.95660	0.44038
729.02795	0.44124
727.09931	0.44185
725.17066	0.44204
723.24201	0.44183
721.31337	0.44135
719.38472	0.44065
717.45608	0.43970
715.52743	0.43856
713.59879	0.43755
711.67014	0.43718
709.74150	0.43793
707.81285	0.44025
705.88421	0.44460
703.95556	0.45110
702.02692	0.45931
700.09827	0.46807
698.16962	0.47582
696.24098	0.48112
694.31233	0.48319
692.38369	0.48214
690.45504	0.47895
688.52640	0.47493
686.59775	0.47115
684.66911	0.46791
682.74046	0.46499
680.81182	0.46209
678.88317	0.45926
676.95453	0.45693
675.02588	0.45563
673.09723	0.45566
671.16859	0.45684
669.23994	0.45854
667.31130	0.46015
665.38265	0.46155
663.45401	0.46309
661.52536	0.46514
659.59672	0.46781
657.66807	0.47092
655.73943	0.47415
653.81078	0.47727
651.88214	0.48030
649.95349	0.48350
648.02485	0.48699
646.09620	0.49046
644.16755	0.49330
642.23891	0.49490
640.31026	0.49487
638.38162	0.49311
636.45297	0.48999
634.52433	0.48665
632.59568	0.48530
630.66704	0.48844
628.73839	0.49740
626.80975	0.51093
624.88110	0.52533
622.95246	0.53620
621.02381	0.54116
619.09516	0.54183
617.16652	0.54373
615.23787	0.55290
613.30923	0.57133
611.38058	0.59467
609.45194	0.61411
607.52329	0.62115
605.59465	0.61225
603.66600	0.59055
601.73736	0.56438
599.80871	0.54305
597.88007	0.53260
595.95142	0.53389
594.02277	0.54364
592.09413	0.55699
590.16548	0.56978
588.23684	0.57984
586.30819	0.58719
584.37955	0.59332
582.45090	0.60022
580.52226	0.60937
578.59361	0.62119
576.66497	0.63510
574.73632	0.65010
572.80768	0.66529
570.87903	0.68022
568.95038	0.69481
567.02174	0.70915
565.09309	0.72302
563.16445	0.73596
561.23580	0.74769
559.30716	0.75877
557.37851	0.77054
555.44987	0.78463
553.52122	0.80240
551.59258	0.82430
549.66393	0.84961
547.73529	0.87666
545.80664	0.90350
543.87800	0.92859
541.94935	0.95107
540.02070	0.97073
538.09206	0.98770
536.16341	1.00197
534.23477	1.01319
532.30612	1.02064
530.37748	1.02354
528.44883	1.02128
526.52019	1.01376
524.59154	1.00146
522.66290	0.98547
520.73425	0.96718
518.80561	0.94801
516.87696	0.92900
514.94831	0.91069
513.01967	0.89308
511.09102	0.87577
509.16238	0.85831
507.23373	0.84061
505.30509	0.82315
503.37644	0.80689
501.44780	0.79293
499.51915	0.78227
497.59051	0.77555
495.66186	0.77318
493.73322	0.77553
491.80457	0.78314
489.87592	0.79671
487.94728	0.81684
486.01863	0.84353
484.08999	0.87572
482.16134	0.91132
480.23270	0.94766
478.30405	0.98210
476.37541	1.01238
474.44676	1.03687
472.51812	1.05466
470.58947	1.06536
468.66083	1.06878
466.73218	1.06487
464.80353	1.05386
462.87489	1.03631
460.94624	1.01311
459.01760	0.98534
457.08895	0.95428
455.16031	0.92129
453.23166	0.88750
451.30302	0.85370
449.37437	0.82043
447.44573	0.78828
445.51708	0.75798
443.58844	0.73038
441.65979	0.70628
439.73114	0.68621
437.80250	0.67021
435.87385	0.65765
433.94521	0.64735
432.01656	0.63799
430.08792	0.62843
428.15927	0.61795
426.23063	0.60635
424.30198	0.59389
422.37334	0.58115
420.44469	0.56874
418.51605	0.55702
416.58740	0.54580
414.65876	0.53441
412.73011	0.52206
410.80146	0.50852
408.87282	0.49470
406.94417	0.48280
405.01553	0.47557
403.08688	0.47488
401.15824	0.48026
399.22959	0.48838
397.30095	0.49395
395.37230	0.49182
393.44366	0.47923
391.51501	0.45704
389.58637	0.42934
387.65772	0.40180
385.72907	0.37977
383.80043	0.36680
381.87178	0.36408
379.94314	0.37069
378.01449	0.38416
376.08585	0.40103
374.15720	0.41730
372.22856	0.42907
370.29991	0.43321
368.37127	0.42798
366.44262	0.41330
364.51398	0.39069
362.58533	0.36296
360.65668	0.33378
358.72804	0.30702
356.79939	0.28579
354.87075	0.27155
352.94210	0.26370
351.01346	0.25966
349.08481	0.25576
347.15617	0.24862
345.22752	0.23657
343.29888	0.22030
341.37023	0.20232
339.44159	0.18550
337.51294	0.17193
335.58429	0.16225
333.65565	0.15577
331.72700	0.15119
329.79836	0.14761
327.86971	0.14500
325.94107	0.14385
324.01242	0.14424
322.08378	0.14539
320.15513	0.14581
318.22649	0.14398
316.29784	0.13892
314.36920	0.13049
312.44055	0.11918
310.51190	0.10595
308.58326	0.09196
306.65461	0.07839
304.72597	0.06648
302.79732	0.05753
300.86868	0.05248
298.94003	0.05134
297.01139	0.05317
295.08274	0.05630
293.15410	0.05831
291.22545	0.05735
289.29681	0.05236
287.36816	0.04341
285.43952	0.03168
283.51087	0.01917
281.58222	0.00828
279.65358	0.00130
277.72493	0.00000
275.79629	0.00541
273.86764	0.01779
271.93900	0.03650
270.01035	0.05969
268.08171	0.08438
266.15306	0.10706
264.22442	0.12464
262.29577	0.13524
260.36713	0.13844
258.43848	0.13492
256.50983	0.12591
254.58119	0.11291
252.65254	0.09781
250.72390	0.08325
248.79525	0.07267
246.86661	0.06943
244.93796	0.07507
243.00932	0.08822
241.08067	0.10499
239.15203	0.12046
237.22338	0.13024
235.29474	0.13185
233.36609	0.12575
231.43744	0.11494
229.50880	0.10366
227.58015	0.09611
225.65151	0.09573
223.72286	0.10431
221.79422	0.12124
219.86557	0.14360
217.93693	0.16711
216.00828	0.18741
214.07964	0.20111
212.15099	0.20674
210.22235	0.20508
208.29370	0.19866
206.36505	0.19058
204.43641	0.18367
202.50776	0.18003
200.57912	0.18087
198.65047	0.18670
196.72183	0.19772
194.79318	0.21373
192.86454	0.23346
190.93589	0.25402
189.00725	0.27133
187.07860	0.28158
185.14996	0.28282
183.22131	0.27591
181.29267	0.26463
179.36402	0.25464
177.43537	0.25135
175.50673	0.25798
173.57808	0.27530
171.64944	0.30252
169.72079	0.33797
167.79215	0.37910
165.86350	0.42315
163.93486	0.46796
162.00621	0.51552
160.07757	0.55896
158.14892	0.59388
156.22028	0.61848
154.29163	0.61848
152.36298	0.61848
150.43434	0.61848
148.50569	0.61848
