4497.60101	0.02315
4495.67236	0.02315
4493.74372	0.02315
4491.81507	0.02315
4489.88643	0.02315
4487.95778	0.01526
4486.02914	0.00768
4484.10049	0.00328
4482.17185	0.00416
4480.24320	0.01130
4478.31455	0.02132
4476.38591	0.03060
4474.45726	0.03652
4472.52862	0.03839
4470.59997	0.03701
4468.67133	0.03367
4466.74268	0.02974
4464.81404	0.02647
4462.88539	0.02463
4460.95675	0.02418
4459.02810	0.02447
4457.09946	0.02470
4455.17081	0.02413
4453.24216	0.02226
4451.31352	0.01922
4449.38487	0.01580
4447.45623	0.01279
4445.52758	0.01055
4443.59894	0.00922
4441.67029	0.00909
4439.74165	0.01031
4437.81300	0.01255
4435.88436	0.01524
4433.95571	0.01791
4432.02707	0.02016
4430.09842	0.02153
4428.16978	0.02190
4426.24113	0.02175
4424.31248	0.02164
4422.38384	0.02154
4420.45519	0.02089
4418.52655	0.01930
4416.59790	0.01677
4414.66926	0.01349
4412.74061	0.01002
4410.81197	0.00737
4408.88332	0.00632
4406.95468	0.00670
4405.02603	0.00751
4403.09739	0.00788
4401.16874	0.00768
4399.24009	0.00722
4397.31145	0.00699
4395.38280	0.00744
4393.45416	0.00875
4391.52551	0.01065
4389.59687	0.01265
4387.66822	0.01447
4385.73958	0.01620
4383.81093	0.01809
4381.88229	0.02019
4379.95364	0.02216
4378.02500	0.02344
4376.09635	0.02362
4374.16770	0.02259
4372.23906	0.02059
4370.31041	0.01840
4368.38177	0.01712
4366.45312	0.01746
4364.52448	0.01907
4362.59583	0.02070
4360.66719	0.02114
4358.73854	0.01978
4356.80990	0.01690
4354.88125	0.01368
4352.95261	0.01160
4351.02396	0.01161
4349.09531	0.01365
4347.16667	0.01703
4345.23802	0.02079
4343.30938	0.02391
4341.38073	0.02539
4339.45209	0.02460
4337.52344	0.02164
4335.59480	0.01744
4333.66615	0.01345
4331.73751	0.01110
4329.80886	0.01101
4327.88022	0.01260
4325.95157	0.01459
4324.02292	0.01601
4322.09428	0.01684
4320.16563	0.01781
4318.23699	0.01964
4316.30834	0.02226
4314.37970	0.02459
4312.45105	0.02503
4310.52241	0.02264
4308.59376	0.01784
4306.66512	0.01209
4304.73647	0.00730
4302.80783	0.00528
4300.87918	0.00700
4298.95054	0.01200
4297.02189	0.01888
4295.09324	0.02594
4293.16460	0.03148
4291.23595	0.03400
4289.30731	0.03294
4287.37866	0.02920
4285.45002	0.02455
4283.52137	0.02068
4281.59273	0.01842
4279.66408	0.01760
4277.73544	0.01736
4275.80679	0.01668
4273.87815	0.01502
4271.94950	0.01266
4270.02085	0.01055
4268.09221	0.00962
4266.16356	0.01002
4264.23492	0.01139
4262.30627	0.01355
4260.37763	0.01647
4258.44898	0.01992
4256.52034	0.02345
4254.59169	0.02681
4252.66305	0.02983
4250.73440	0.03211
4248.80576	0.03324
4246.87711	0.03313
4244.94846	0.03182
4243.01982	0.02921
4241.09117	0.02519
4239.16253	0.02008
4237.23388	0.01463
4235.30524	0.00959
4233.37659	0.00543
4231.44795	0.00251
4229.51930	0.00109
4227.59066	0.00119
4225.66201	0.00263
4223.73337	0.00517
4221.80472	0.00875
4219.87607	0.01317
4217.94743	0.01778
4216.01878	0.02153
4214.09014	0.02331
4212.16149	0.02244
4210.23285	0.01912
4208.30420	0.01436
4206.37556	0.00956
4204.44691	0.00587
4202.51827	0.00381
4200.58962	0.00328
4198.66098	0.00393
4196.73233	0.00559
4194.80368	0.00829
4192.87504	0.01180
4190.94639	0.01528
4189.01775	0.01753
4187.08910	0.01775
4185.16046	0.01616
4183.23181	0.01400
4181.30317	0.01286
4179.37452	0.01367
4177.44588	0.01615
4175.51723	0.01911
4173.58859	0.02111
4171.65994	0.02107
4169.73130	0.01884
4167.80265	0.01548
4165.87400	0.01254
4163.94536	0.01111
4162.01671	0.01151
4160.08807	0.01353
4158.15942	0.01631
4156.23078	0.01830
4154.30213	0.01814
4152.37349	0.01554
4150.44484	0.01134
4148.51620	0.00692
4146.58755	0.00369
4144.65891	0.00264
4142.73026	0.00390
4140.80161	0.00663
4138.87297	0.00959
4136.94432	0.01170
4135.01568	0.01263
4133.08703	0.01286
4131.15839	0.01319
4129.22974	0.01421
4127.30110	0.01609
4125.37245	0.01848
4123.44381	0.02056
4121.51516	0.02145
4119.58652	0.02083
4117.65787	0.01919
4115.72922	0.01731
4113.80058	0.01581
4111.87193	0.01495
4109.94329	0.01475
4108.01464	0.01510
4106.08600	0.01586
4104.15735	0.01689
4102.22871	0.01803
4100.30006	0.01906
4098.37142	0.01964
4096.44277	0.01946
4094.51413	0.01835
4092.58548	0.01628
4090.65683	0.01325
4088.72819	0.00960
4086.79954	0.00628
4084.87090	0.00459
4082.94225	0.00543
4081.01361	0.00883
4079.08496	0.01387
4077.15632	0.01895
4075.22767	0.02221
4073.29903	0.02235
4071.37038	0.01940
4069.44174	0.01465
4067.51309	0.00986
4065.58444	0.00664
4063.65580	0.00603
4061.72715	0.00826
4059.79851	0.01232
4057.86986	0.01626
4055.94122	0.01821
4054.01257	0.01747
4052.08393	0.01481
4050.15528	0.01204
4048.22664	0.01101
4046.29799	0.01251
4044.36935	0.01586
4042.44070	0.01926
4040.51206	0.02090
4038.58341	0.01984
4036.65476	0.01656
4034.72612	0.01264
4032.79747	0.00960
4030.86883	0.00810
4028.94018	0.00780
4027.01154	0.00792
4025.08289	0.00775
4023.15425	0.00681
4021.22560	0.00517
4019.29696	0.00335
4017.36831	0.00199
4015.43967	0.00150
4013.51102	0.00197
4011.58237	0.00332
4009.65373	0.00539
4007.72508	0.00787
4005.79644	0.01036
4003.86779	0.01257
4001.93915	0.01436
4000.01050	0.01565
3998.08186	0.01646
3996.15321	0.01701
3994.22457	0.01755
3992.29592	0.01819
3990.36728	0.01886
3988.43863	0.01937
3986.50998	0.01955
3984.58134	0.01929
3982.65269	0.01876
3980.72405	0.01828
3978.79540	0.01811
3976.86676	0.01816
3974.93811	0.01806
3973.00947	0.01735
3971.08082	0.01579
3969.15218	0.01355
3967.22353	0.01121
3965.29489	0.00956
3963.36624	0.00916
3961.43759	0.00999
3959.50895	0.01145
3957.58030	0.01263
3955.65166	0.01274
3953.72301	0.01138
3951.79437	0.00871
3949.86572	0.00533
3947.93708	0.00197
3946.00843	-0.00089
3944.07979	-0.00307
3942.15114	-0.00455
3940.22250	-0.00521
3938.29385	-0.00481
3936.36521	-0.00304
3934.43656	0.00029
3932.50791	0.00493
3930.57927	0.01007
3928.65062	0.01447
3926.72198	0.01706
3924.79333	0.01740
3922.86469	0.01590
3920.93604	0.01356
3919.00740	0.01154
3917.07875	0.01060
3915.15011	0.01082
3913.22146	0.01159
3911.29282	0.01215
3909.36417	0.01205
3907.43552	0.01142
3905.50688	0.01069
3903.57823	0.01029
3901.64959	0.01032
3899.72094	0.01045
3897.79230	0.01013
3895.86365	0.00893
3893.93501	0.00696
3892.00636	0.00478
3890.07772	0.00316
3888.14907	0.00268
3886.22043	0.00353
3884.29178	0.00549
3882.36313	0.00805
3880.43449	0.01061
3878.50584	0.01257
3876.57720	0.01349
3874.64855	0.01305
3872.71991	0.01123
3870.79126	0.00842
3868.86262	0.00543
3866.93397	0.00308
3865.00533	0.00180
3863.07668	0.00150
3861.14804	0.00172
3859.21939	0.00198
3857.29074	0.00210
3855.36210	0.00238
3853.43345	0.00340
3851.50481	0.00542
3849.57616	0.00811
3847.64752	0.01057
3845.71887	0.01183
3843.79023	0.01129
3841.86158	0.00903
3839.93294	0.00581
3838.00429	0.00285
3836.07565	0.00126
3834.14700	0.00155
3832.21835	0.00359
3830.28971	0.00670
3828.36106	0.00995
3826.43242	0.01239
3824.50377	0.01343
3822.57513	0.01300
3820.64648	0.01144
3818.71784	0.00930
3816.78919	0.00722
3814.86055	0.00590
3812.93190	0.00584
3811.00326	0.00716
3809.07461	0.00960
3807.14597	0.01258
3805.21732	0.01538
3803.28867	0.01724
3801.36003	0.01775
3799.43138	0.01702
3797.50274	0.01565
3795.57409	0.01436
3793.64545	0.01362
3791.71680	0.01350
3789.78816	0.01366
3787.85951	0.01350
3785.93087	0.01253
3784.00222	0.01073
3782.07358	0.00865
3780.14493	0.00712
3778.21628	0.00685
3776.28764	0.00814
3774.35899	0.01078
3772.43035	0.01416
3770.50170	0.01756
3768.57306	0.02036
3766.64441	0.02225
3764.71577	0.02312
3762.78712	0.02296
3760.85848	0.02170
3758.92983	0.01928
3757.00119	0.01574
3755.07254	0.01131
3753.14389	0.00649
3751.21525	0.00197
3749.28660	-0.00141
3747.35796	-0.00298
3745.42931	-0.00246
3743.50067	0.00000
3741.57202	0.00381
3739.64338	0.00816
3737.71473	0.01225
3735.78609	0.01549
3733.85744	0.01771
3731.92880	0.01906
3730.00015	0.01997
3728.07150	0.02088
3726.14286	0.02211
3724.21421	0.02368
3722.28557	0.02529
3720.35692	0.02639
3718.42828	0.02654
3716.49963	0.02564
3714.57099	0.02409
3712.64234	0.02264
3710.71370	0.02216
3708.78505	0.02326
3706.85641	0.02600
3704.92776	0.02987
3702.99911	0.03406
3701.07047	0.03776
3699.14182	0.04046
3697.21318	0.04215
3695.28453	0.04333
3693.35589	0.04481
3691.42724	0.04719
3689.49860	0.05063
3687.56995	0.05471
3685.64131	0.05860
3683.71266	0.06142
3681.78402	0.06273
3679.85537	0.06284
3677.92673	0.06264
3675.99808	0.06319
3674.06943	0.06532
3672.14079	0.06937
3670.21214	0.07506
3668.28350	0.08175
3666.35485	0.08885
3664.42621	0.09615
3662.49756	0.10375
3660.56892	0.11187
3658.64027	0.12075
3656.71163	0.13046
3654.78298	0.14081
3652.85434	0.15141
3650.92569	0.16197
3648.99704	0.17236
3647.06840	0.18268
3645.13975	0.19323
3643.21111	0.20443
3641.28246	0.21653
3639.35382	0.22942
3637.42517	0.24264
3635.49653	0.25544
3633.56788	0.26718
3631.63924	0.27769
3629.71059	0.28747
3627.78195	0.29750
3625.85330	0.30871
3623.92465	0.32147
3621.99601	0.33546
3620.06736	0.34981
3618.13872	0.36349
3616.21007	0.37582
3614.28143	0.38688
3612.35278	0.39742
3610.42414	0.40848
3608.49549	0.42095
3606.56685	0.43529
3604.63820	0.45135
3602.70956	0.46848
3600.78091	0.48564
3598.85226	0.50182
3596.92362	0.51640
3594.99497	0.52930
3593.06633	0.54093
3591.13768	0.55203
3589.20904	0.56333
3587.28039	0.57524
3585.35175	0.58788
3583.42310	0.60115
3581.49446	0.61499
3579.56581	0.62946
3577.63717	0.64464
3575.70852	0.66045
3573.77988	0.67654
3571.85123	0.69243
3569.92258	0.70769
3567.99394	0.72220
3566.06529	0.73625
3564.13665	0.75031
3562.20800	0.76478
3560.27936	0.77974
3558.35071	0.79494
3556.42207	0.81006
3554.49342	0.82488
3552.56478	0.83947
3550.63613	0.85413
3548.70749	0.86914
3546.77884	0.88455
3544.85019	0.90004
3542.92155	0.91521
3540.99290	0.92989
3539.06426	0.94421
3537.13561	0.95856
3535.20697	0.97326
3533.27832	0.98835
3531.34968	1.00354
3529.42103	1.01839
3527.49239	1.03264
3525.56374	1.04637
3523.63510	1.05987
3521.70645	1.07339
3519.77780	1.08701
3517.84916	1.10072
3515.92051	1.11459
3513.99187	1.12886
3512.06322	1.14376
3510.13458	1.15930
3508.20593	1.17500
3506.27729	1.19006
3504.34864	1.20382
3502.42000	1.21620
3500.49135	1.22776
3498.56271	1.23935
3496.63406	1.25154
3494.70541	1.26425
3492.77677	1.27679
3490.84812	1.28824
3488.91948	1.29807
3486.99083	1.30649
3485.06219	1.31429
3483.13354	1.32248
3481.20490	1.33188
3479.27625	1.34296
3477.34761	1.35573
3475.41896	1.36978
3473.49032	1.38445
3471.56167	1.39896
3469.63302	1.41261
3467.70438	1.42481
3465.77573	1.43530
3463.84709	1.44425
3461.91844	1.45222
3459.98980	1.45985
3458.06115	1.46774
3456.13251	1.47634
3454.20386	1.48592
3452.27522	1.49644
3450.34657	1.50758
3448.41793	1.51885
3446.48928	1.52969
3444.56064	1.53968
3442.63199	1.54862
3440.70334	1.55664
3438.77470	1.56409
3436.84605	1.57133
3434.91741	1.57848
3432.98876	1.58545
3431.06012	1.59209
3429.13147	1.59843
3427.20283	1.60473
3425.27418	1.61138
3423.34554	1.61867
3421.41689	1.62656
3419.48825	1.63461
3417.55960	1.64226
3415.63095	1.64915
3413.70231	1.65536
3411.77366	1.66137
3409.84502	1.66779
3407.91637	1.67494
3405.98773	1.68259
3404.05908	1.69002
3402.13044	1.69635
3400.20179	1.70097
3398.27315	1.70382
3396.34450	1.70535
3394.41586	1.70632
3392.48721	1.70735
3390.55856	1.70884
3388.62992	1.71093
3386.70127	1.71363
3384.77263	1.71695
3382.84398	1.72085
3380.91534	1.72510
3378.98669	1.72928
3377.05805	1.73281
3375.12940	1.73529
3373.20076	1.73657
3371.27211	1.73674
3369.34347	1.73605
3367.41482	1.73476
3365.48617	1.73303
3363.55753	1.73101
3361.62888	1.72905
3359.70024	1.72782
3357.77159	1.72798
3355.84295	1.72991
3353.91430	1.73339
3351.98566	1.73757
3350.05701	1.74124
3348.12837	1.74327
3346.19972	1.74310
3344.27108	1.74095
3342.34243	1.73752
3340.41378	1.73366
3338.48514	1.73011
3336.55649	1.72738
3334.62785	1.72581
3332.69920	1.72556
3330.77056	1.72657
3328.84191	1.72841
3326.91327	1.73026
3324.98462	1.73121
3323.05598	1.73068
3321.12733	1.72879
3319.19869	1.72628
3317.27004	1.72422
3315.34140	1.72342
3313.41275	1.72411
3311.48410	1.72586
3309.55546	1.72788
3307.62681	1.72946
3305.69817	1.73030
3303.76952	1.73045
3301.84088	1.73020
3299.91223	1.72979
3297.98359	1.72928
3296.05494	1.72852
3294.12630	1.72738
3292.19765	1.72586
3290.26901	1.72420
3288.34036	1.72262
3286.41171	1.72120
3284.48307	1.71975
3282.55442	1.71786
3280.62578	1.71520
3278.69713	1.71173
3276.76849	1.70777
3274.83984	1.70382
3272.91120	1.70019
3270.98255	1.69676
3269.05391	1.69301
3267.12526	1.68830
3265.19662	1.68225
3263.26797	1.67502
3261.33932	1.66731
3259.41068	1.66003
3257.48203	1.65390
3255.55339	1.64916
3253.62474	1.64550
3251.69610	1.64229
3249.76745	1.63882
3247.83881	1.63446
3245.91016	1.62888
3243.98152	1.62209
3242.05287	1.61436
3240.12423	1.60629
3238.19558	1.59864
3236.26693	1.59212
3234.33829	1.58719
3232.40964	1.58380
3230.48100	1.58139
3228.55235	1.57909
3226.62371	1.57605
3224.69506	1.57169
3222.76642	1.56585
3220.83777	1.55871
3218.90913	1.55076
3216.98048	1.54261
3215.05184	1.53478
3213.12319	1.52758
3211.19455	1.52104
3209.26590	1.51494
3207.33725	1.50878
3205.40861	1.50199
3203.47996	1.49426
3201.55132	1.48573
3199.62267	1.47696
3197.69403	1.46870
3195.76538	1.46156
3193.83674	1.45570
3191.90809	1.45074
3189.97945	1.44587
3188.05080	1.44023
3186.12216	1.43334
3184.19351	1.42520
3182.26486	1.41620
3180.33622	1.40677
3178.40757	1.39727
3176.47893	1.38783
3174.55028	1.37850
3172.62164	1.36934
3170.69299	1.36057
3168.76435	1.35249
3166.83570	1.34533
3164.90706	1.33902
3162.97841	1.33316
3161.04977	1.32710
3159.12112	1.32024
3157.19247	1.31228
3155.26383	1.30338
3153.33518	1.29403
3151.40654	1.28490
3149.47789	1.27657
3147.54925	1.26931
3145.62060	1.26300
3143.69196	1.25724
3141.76331	1.25159
3139.83467	1.24568
3137.90602	1.23922
3135.97738	1.23214
3134.04873	1.22450
3132.12008	1.21652
3130.19144	1.20851
3128.26279	1.20081
3126.33415	1.19381
3124.40550	1.18777
3122.47686	1.18262
3120.54821	1.17803
3118.61957	1.17341
3116.69092	1.16817
3114.76228	1.16187
3112.83363	1.15440
3110.90499	1.14603
3108.97634	1.13726
3107.04769	1.12869
3105.11905	1.12090
3103.19040	1.11439
3101.26176	1.10942
3099.33311	1.10580
3097.40447	1.10299
3095.47582	1.10021
3093.54718	1.09679
3091.61853	1.09234
3089.68989	1.08701
3087.76124	1.08137
3085.83260	1.07614
3083.90395	1.07181
3081.97531	1.06837
3080.04666	1.06530
3078.11801	1.06178
3076.18937	1.05697
3074.26072	1.05028
3072.33208	1.04170
3070.40343	1.03176
3068.47479	1.02138
3066.54614	1.01158
3064.61750	1.00308
3062.68885	0.99619
3060.76021	0.99067
3058.83156	0.98600
3056.90292	0.98156
3054.97427	0.97690
3053.04562	0.97173
3051.11698	0.96591
3049.18833	0.95938
3047.25969	0.95217
3045.33104	0.94444
3043.40240	0.93655
3041.47375	0.92905
3039.54511	0.92251
3037.61646	0.91722
3035.68782	0.91304
3033.75917	0.90938
3031.83053	0.90555
3029.90188	0.90094
3027.97323	0.89536
3026.04459	0.88906
3024.11594	0.88262
3022.18730	0.87667
3020.25865	0.87157
3018.33001	0.86734
3016.40136	0.86378
3014.47272	0.86053
3012.54407	0.85731
3010.61543	0.85396
3008.68678	0.85053
3006.75814	0.84714
3004.82949	0.84395
3002.90084	0.84109
3000.97220	0.83859
2999.04355	0.83635
2997.11491	0.83435
2995.18626	0.83273
2993.25762	0.83183
2991.32897	0.83197
2989.40033	0.83332
2987.47168	0.83579
2985.54304	0.83893
2983.61439	0.84209
2981.68575	0.84482
2979.75710	0.84717
2977.82845	0.84961
2975.89981	0.85271
2973.97116	0.85675
2972.04252	0.86170
2970.11387	0.86723
2968.18523	0.87283
2966.25658	0.87786
2964.32794	0.88181
2962.39929	0.88438
2960.47065	0.88551
2958.54200	0.88520
2956.61336	0.88366
2954.68471	0.88137
2952.75607	0.87900
2950.82742	0.87709
2948.89877	0.87609
2946.97013	0.87656
2945.04148	0.87892
2943.11284	0.88301
2941.18419	0.88812
2939.25555	0.89351
2937.32690	0.89861
2935.39826	0.90309
2933.46961	0.90707
2931.54097	0.91108
2929.61232	0.91549
2927.68368	0.92007
2925.75503	0.92400
2923.82638	0.92619
2921.89774	0.92545
2919.96909	0.92078
2918.04045	0.91163
2916.11180	0.89823
2914.18316	0.88152
2912.25451	0.86299
2910.32587	0.84434
2908.39722	0.82712
2906.46858	0.81238
2904.53993	0.80049
2902.61129	0.79126
2900.68264	0.78421
2898.75399	0.77872
2896.82535	0.77403
2894.89670	0.76937
2892.96806	0.76429
2891.03941	0.75865
2889.11077	0.75258
2887.18212	0.74653
2885.25348	0.74117
2883.32483	0.73696
2881.39619	0.73384
2879.46754	0.73135
2877.53890	0.72897
2875.61025	0.72616
2873.68160	0.72253
2871.75296	0.71810
2869.82431	0.71322
2867.89567	0.70839
2865.96702	0.70417
2864.03838	0.70112
2862.10973	0.69973
2860.18109	0.70022
2858.25244	0.70235
2856.32380	0.70525
2854.39515	0.70744
2852.46651	0.70710
2850.53786	0.70264
2848.60922	0.69335
2846.68057	0.67982
2844.75192	0.66381
2842.82328	0.64759
2840.89463	0.63315
2838.96599	0.62157
2837.03734	0.61275
2835.10870	0.60580
2833.18005	0.59971
2831.25141	0.59376
2829.32276	0.58767
2827.39412	0.58159
2825.46547	0.57574
2823.53683	0.57027
2821.60818	0.56519
2819.67953	0.56048
2817.75089	0.55620
2815.82224	0.55245
2813.89360	0.54936
2811.96495	0.54698
2810.03631	0.54508
2808.10766	0.54323
2806.17902	0.54103
2804.25037	0.53820
2802.32173	0.53475
2800.39308	0.53106
2798.46444	0.52759
2796.53579	0.52446
2794.60714	0.52129
2792.67850	0.51756
2790.74985	0.51293
2788.82121	0.50743
2786.89256	0.50158
2784.96392	0.49620
2783.03527	0.49201
2781.10663	0.48912
2779.17798	0.48717
2777.24934	0.48565
2775.32069	0.48420
2773.39205	0.48275
2771.46340	0.48150
2769.53475	0.48070
2767.60611	0.48030
2765.67746	0.47992
2763.74882	0.47904
2761.82017	0.47726
2759.89153	0.47462
2757.96288	0.47159
2756.03424	0.46886
2754.10559	0.46689
2752.17695	0.46569
2750.24830	0.46491
2748.31966	0.46392
2746.39101	0.46224
2744.46236	0.45983
2742.53372	0.45705
2740.60507	0.45428
2738.67643	0.45166
2736.74778	0.44915
2734.81914	0.44665
2732.89049	0.44414
2730.96185	0.44179
2729.03320	0.43991
2727.10456	0.43868
2725.17591	0.43792
2723.24727	0.43701
2721.31862	0.43535
2719.38998	0.43282
2717.46133	0.42976
2715.53268	0.42669
2713.60404	0.42407
2711.67539	0.42210
2709.74675	0.42056
2707.81810	0.41888
2705.88946	0.41662
2703.96081	0.41373
2702.03217	0.41051
2700.10352	0.40737
2698.17488	0.40462
2696.24623	0.40239
2694.31759	0.40059
2692.38894	0.39898
2690.46029	0.39735
2688.53165	0.39561
2686.60300	0.39379
2684.67436	0.39198
2682.74571	0.39020
2680.81707	0.38839
2678.88842	0.38661
2676.95978	0.38502
2675.03113	0.38381
2673.10249	0.38305
2671.17384	0.38255
2669.24520	0.38181
2667.31655	0.38019
2665.38790	0.37739
2663.45926	0.37377
2661.53061	0.37006
2659.60197	0.36695
2657.67332	0.36474
2655.74468	0.36327
2653.81603	0.36194
2651.88739	0.36013
2649.95874	0.35773
2648.03010	0.35516
2646.10145	0.35287
2644.17281	0.35094
2642.24416	0.34912
2640.31551	0.34724
2638.38687	0.34521
2636.45822	0.34306
2634.52958	0.34096
2632.60093	0.33921
2630.67229	0.33789
2628.74364	0.33670
2626.81500	0.33527
2624.88635	0.33345
2622.95771	0.33123
2621.02906	0.32855
2619.10042	0.32567
2617.17177	0.32329
2615.24312	0.32213
2613.31448	0.32237
2611.38583	0.32352
2609.45719	0.32459
2607.52854	0.32439
2605.59990	0.32205
2603.67125	0.31750
2601.74261	0.31167
2599.81396	0.30595
2597.88532	0.30149
2595.95667	0.29890
2594.02803	0.29820
2592.09938	0.29891
2590.17074	0.30011
2588.24209	0.30085
2586.31344	0.30045
2584.38480	0.29858
2582.45615	0.29525
2580.52751	0.29114
2578.59886	0.28745
2576.67022	0.28524
2574.74157	0.28504
2572.81293	0.28692
2570.88428	0.29034
2568.95564	0.29403
2567.02699	0.29669
2565.09835	0.29778
2563.16970	0.29752
2561.24105	0.29640
2559.31241	0.29507
2557.38376	0.29428
2555.45512	0.29433
2553.52647	0.29486
2551.59783	0.29526
2549.66918	0.29496
2547.74054	0.29336
2545.81189	0.29028
2543.88325	0.28634
2541.95460	0.28265
2540.02596	0.28023
2538.09731	0.27963
2536.16866	0.28067
2534.24002	0.28227
2532.31137	0.28288
2530.38273	0.28158
2528.45408	0.27873
2526.52544	0.27541
2524.59679	0.27284
2522.66815	0.27184
2520.73950	0.27244
2518.81086	0.27378
2516.88221	0.27475
2514.95357	0.27473
2513.02492	0.27382
2511.09627	0.27262
2509.16763	0.27181
2507.23898	0.27169
2505.31034	0.27208
2503.38169	0.27260
2501.45305	0.27292
2499.52440	0.27267
2497.59576	0.27165
2495.66711	0.27015
2493.73847	0.26887
2491.80982	0.26845
2489.88118	0.26918
2487.95253	0.27096
2486.02389	0.27321
2484.09524	0.27483
2482.16659	0.27477
2480.23795	0.27294
2478.30930	0.27052
2476.38066	0.26899
2474.45201	0.26914
2472.52337	0.27086
2470.59472	0.27335
2468.66608	0.27542
2466.73743	0.27601
2464.80879	0.27497
2462.88014	0.27311
2460.95150	0.27122
2459.02285	0.26962
2457.09420	0.26839
2455.16556	0.26764
2453.23691	0.26759
2451.30827	0.26833
2449.37962	0.26974
2447.45098	0.27135
2445.52233	0.27264
2443.59369	0.27339
2441.66504	0.27378
2439.73640	0.27427
2437.80775	0.27532
2435.87911	0.27700
2433.95046	0.27866
2432.02181	0.27937
2430.09317	0.27864
2428.16452	0.27671
2426.23588	0.27427
2424.30723	0.27221
2422.37859	0.27123
2420.44994	0.27155
2418.52130	0.27286
2416.59265	0.27453
2414.66401	0.27597
2412.73536	0.27687
2410.80672	0.27718
2408.87807	0.27688
2406.94942	0.27588
2405.02078	0.27421
2403.09213	0.27204
2401.16349	0.26969
2399.23484	0.26757
2397.30620	0.26610
2395.37755	0.26551
2393.44891	0.26575
2391.52026	0.26654
2389.59162	0.26751
2387.66297	0.26823
2385.73433	0.26843
2383.80568	0.26819
2381.87703	0.26787
2379.94839	0.26780
2378.01974	0.26794
2376.09110	0.26773
2374.16245	0.26611
2372.23381	0.26197
2370.30516	0.25473
2368.37652	0.24500
2366.44787	0.23447
2364.51923	0.22541
2362.59058	0.22000
2360.66194	0.21976
2358.73329	0.22522
2356.80465	0.23565
2354.87600	0.24907
2352.94735	0.26280
2351.01871	0.27434
2349.09006	0.28210
2347.16142	0.28574
2345.23277	0.28616
2343.30413	0.28499
2341.37548	0.28385
2339.44684	0.28361
2337.51819	0.28431
2335.58955	0.28551
2333.66090	0.28663
2331.73226	0.28720
2329.80361	0.28700
2327.87496	0.28605
2325.94632	0.28441
2324.01767	0.28194
2322.08903	0.27832
2320.16038	0.27327
2318.23174	0.26693
2316.30309	0.26003
2314.37445	0.25370
2312.44580	0.24906
2310.51716	0.24672
2308.58851	0.24649
2306.65987	0.24750
2304.73122	0.24868
2302.80257	0.24933
2300.87393	0.24927
2298.94528	0.24868
2297.01664	0.24781
2295.08799	0.24679
2293.15935	0.24561
2291.23070	0.24418
2289.30206	0.24242
2287.37341	0.24020
2285.44477	0.23741
2283.51612	0.23403
2281.58748	0.23031
2279.65883	0.22677
2277.73018	0.22400
2275.80154	0.22236
2273.87289	0.22178
2271.94425	0.22180
2270.01560	0.22192
2268.08696	0.22192
2266.15831	0.22190
2264.22967	0.22206
2262.30102	0.22234
2260.37238	0.22245
2258.44373	0.22246
2256.51509	0.22316
2254.58644	0.22573
2252.65779	0.23115
2250.72915	0.23944
2248.80050	0.24895
2246.87186	0.25641
2244.94321	0.25818
2243.01457	0.25246
2241.08592	0.24041
2239.15728	0.22519
2237.22863	0.21066
2235.29999	0.20008
2233.37134	0.19488
2231.44270	0.19418
2229.51405	0.19553
2227.58541	0.19685
2225.65676	0.19786
2223.72811	0.19981
2221.79947	0.20407
2219.87082	0.21057
2217.94218	0.21726
2216.01353	0.22096
2214.08489	0.21889
2212.15624	0.21001
2210.22760	0.19625
2208.29895	0.18257
2206.37031	0.17426
2204.44166	0.17319
2202.51302	0.17658
2200.58437	0.17956
2198.65572	0.17818
2196.72708	0.17074
2194.79843	0.15811
2192.86979	0.14290
2190.94114	0.12788
2189.01250	0.11518
2187.08385	0.10673
2185.15521	0.10476
2183.22656	0.11113
2181.29792	0.12563
2179.36927	0.14387
2177.44063	0.15706
2175.51198	0.15593
2173.58333	0.13720
2171.65469	0.10670
2169.72604	0.07572
2167.79740	0.05464
2165.86875	0.04823
2163.94011	0.05438
2162.01146	0.06620
2160.08282	0.07623
2158.15417	0.08133
2156.22553	0.08464
2154.29688	0.09174
2152.36824	0.10478
2150.43959	0.12054
2148.51094	0.13334
2146.58230	0.13846
2144.65365	0.13365
2142.72501	0.12022
2140.79636	0.10380
2138.86772	0.09174
2136.93907	0.08872
2135.01043	0.09517
2133.08178	0.10900
2131.15314	0.12692
2129.22449	0.14487
2127.29585	0.15930
2125.36720	0.16847
2123.43856	0.17227
2121.50991	0.17112
2119.58126	0.16575
2117.65262	0.15735
2115.72397	0.14734
2113.79533	0.13726
2111.86668	0.12874
2109.93804	0.12324
2108.00939	0.12174
2106.08075	0.12481
2104.15210	0.13226
2102.22346	0.14249
2100.29481	0.15271
2098.36617	0.16043
2096.43752	0.16458
2094.50887	0.16561
2092.58023	0.16516
2090.65158	0.16539
2088.72294	0.16758
2086.79429	0.17093
2084.86565	0.17287
2082.93700	0.17082
2081.00836	0.16362
2079.07971	0.15226
2077.15107	0.13960
2075.22242	0.12924
2073.29378	0.12395
2071.36513	0.12448
2069.43648	0.12946
2067.50784	0.13605
2065.57919	0.14114
2063.65055	0.14251
2061.72190	0.13956
2059.79326	0.13304
2057.86461	0.12420
2055.93597	0.11425
2054.00732	0.10412
2052.07868	0.09437
2050.15003	0.08513
2048.22139	0.07620
2046.29274	0.06725
2044.36409	0.05785
2042.43545	0.04778
2040.50680	0.03752
2038.57816	0.02849
2036.64951	0.02249
2034.72087	0.02074
2032.79222	0.02358
2030.86358	0.03078
2028.93493	0.04202
2027.00629	0.05680
2025.07764	0.07448
2023.14900	0.09313
2021.22035	0.10802
2019.29170	0.11326
2017.36306	0.10492
2015.43441	0.08403
2013.50577	0.05741
2011.57712	0.03542
2009.64848	0.02729
2007.71983	0.03665
2005.79119	0.05987
2003.86254	0.08845
2001.93390	0.11359
2000.00525	0.12994
1998.07661	0.13705
1996.14796	0.13829
1994.21932	0.13815
1992.29067	0.13993
1990.36202	0.14485
1988.43338	0.15256
1986.50473	0.16184
1984.57609	0.17100
1982.64744	0.17800
1980.71880	0.18101
1978.79015	0.17907
1976.86151	0.17304
1974.93286	0.16574
1973.00422	0.16093
1971.07557	0.16123
1969.14693	0.16650
1967.21828	0.17384
1965.28963	0.17912
1963.36099	0.17919
1961.43234	0.17362
1959.50370	0.16491
1957.57505	0.15686
1955.64641	0.15219
1953.71776	0.15134
1951.78912	0.15299
1949.86047	0.15542
1947.93183	0.15758
1946.00318	0.15941
1944.07454	0.16156
1942.14589	0.16456
1940.21724	0.16822
1938.28860	0.17164
1936.35995	0.17378
1934.43131	0.17408
1932.50266	0.17248
1930.57402	0.16923
1928.64537	0.16467
1926.71673	0.15940
1924.78808	0.15424
1922.85944	0.15003
1920.93079	0.14746
1919.00215	0.14692
1917.07350	0.14832
1915.14485	0.15109
1913.21621	0.15428
1911.28756	0.15690
1909.35892	0.15831
1907.43027	0.15831
1905.50163	0.15714
1903.57298	0.15531
1901.64434	0.15346
1899.71569	0.15218
1897.78705	0.15180
1895.85840	0.15229
1893.92976	0.15340
1892.00111	0.15474
1890.07246	0.15594
1888.14382	0.15666
1886.21517	0.15665
1884.28653	0.15590
1882.35788	0.15468
1880.42924	0.15342
1878.50059	0.15261
1876.57195	0.15264
1874.64330	0.15361
1872.71466	0.15531
1870.78601	0.15722
1868.85737	0.15881
1866.92872	0.15976
1865.00008	0.15998
1863.07143	0.15949
1861.14278	0.15841
1859.21414	0.15689
1857.28549	0.15512
1855.35685	0.15334
1853.42820	0.15196
1851.49956	0.15145
1849.57091	0.15210
1847.64227	0.15379
1845.71362	0.15608
1843.78498	0.15835
1841.85633	0.15995
1839.92769	0.16042
1837.99904	0.15970
1836.07039	0.15808
1834.14175	0.15611
1832.21310	0.15439
1830.28446	0.15345
1828.35581	0.15358
1826.42717	0.15470
1824.49852	0.15642
1822.56988	0.15822
1820.64123	0.15967
1818.71259	0.16057
1816.78394	0.16095
1814.85530	0.16109
1812.92665	0.16133
1810.99800	0.16194
1809.06936	0.16295
1807.14071	0.16420
1805.21207	0.16542
1803.28342	0.16635
1801.35478	0.16681
1799.42613	0.16683
1797.49749	0.16658
1795.56884	0.16630
1793.64020	0.16613
1791.71155	0.16616
1789.78291	0.16650
1787.85426	0.16742
1785.92561	0.16915
1783.99697	0.17182
1782.06832	0.17527
1780.13968	0.17907
1778.21103	0.18263
1776.28239	0.18550
1774.35374	0.18769
1772.42510	0.18964
1770.49645	0.19191
1768.56781	0.19490
1766.63916	0.19862
1764.71052	0.20282
1762.78187	0.20713
1760.85322	0.21146
1758.92458	0.21603
1756.99593	0.22130
1755.06729	0.22771
1753.13864	0.23540
1751.21000	0.24423
1749.28135	0.25389
1747.35271	0.26400
1745.42406	0.27428
1743.49542	0.28459
1741.56677	0.29491
1739.63813	0.30523
1737.70948	0.31555
1735.78084	0.32585
1733.85219	0.33612
1731.92354	0.34625
1729.99490	0.35595
1728.06625	0.36485
1726.13761	0.37270
1724.20896	0.37951
1722.28032	0.38563
1720.35167	0.39169
1718.42303	0.39840
1716.49438	0.40625
1714.56574	0.41530
1712.63709	0.42526
1710.70845	0.43568
1708.77980	0.44631
1706.85115	0.45722
1704.92251	0.46894
1702.99386	0.48228
1701.06522	0.49814
1699.13657	0.51717
1697.20793	0.53955
1695.27928	0.56491
1693.35064	0.59257
1691.42199	0.62173
1689.49335	0.65167
1687.56470	0.68195
1685.63606	0.71238
1683.70741	0.74295
1681.77876	0.77363
1679.85012	0.80435
1677.92147	0.83504
1675.99283	0.86578
1674.06418	0.89675
1672.13554	0.92811
1670.20689	0.95996
1668.27825	0.99210
1666.34960	1.02391
1664.42096	1.05440
1662.49231	1.08248
1660.56367	1.10732
1658.63502	1.12850
1656.70637	1.14613
1654.77773	1.16067
1652.84908	1.17278
1650.92044	1.18292
1648.99179	1.19120
1647.06315	1.19749
1645.13450	1.20160
1643.20586	1.20339
1641.27721	1.20284
1639.34857	1.20015
1637.41992	1.19561
1635.49128	1.18956
1633.56263	1.18228
1631.63399	1.17396
1629.70534	1.16470
1627.77669	1.15461
1625.84805	1.14381
1623.91940	1.13260
1621.99076	1.12147
1620.06211	1.11111
1618.13347	1.10220
1616.20482	1.09520
1614.27618	1.09015
1612.34753	1.08669
1610.41889	1.08418
1608.49024	1.08189
1606.56160	1.07927
1604.63295	1.07597
1602.70430	1.07181
1600.77566	1.06666
1598.84701	1.06035
1596.91837	1.05263
1594.98972	1.04329
1593.06108	1.03230
1591.13243	1.01984
1589.20379	1.00628
1587.27514	0.99211
1585.34650	0.97780
1583.41785	0.96373
1581.48921	0.95015
1579.56056	0.93726
1577.63191	0.92522
1575.70327	0.91419
1573.77462	0.90420
1571.84598	0.89505
1569.91733	0.88626
1567.98869	0.87719
1566.06004	0.86729
1564.13140	0.85638
1562.20275	0.84485
1560.27411	0.83348
1558.34546	0.82308
1556.41682	0.81400
1554.48817	0.80585
1552.55952	0.79761
1550.63088	0.78808
1548.70223	0.77636
1546.77359	0.76231
1544.84494	0.74648
1542.91630	0.72986
1540.98765	0.71348
1539.05901	0.69805
1537.13036	0.68384
1535.20172	0.67081
1533.27307	0.65882
1531.34443	0.64780
1529.41578	0.63786
1527.48713	0.62917
1525.55849	0.62187
1523.62984	0.61577
1521.70120	0.61023
1519.77255	0.60414
1517.84391	0.59613
1515.91526	0.58500
1513.98662	0.57031
1512.05797	0.55257
1510.12933	0.53313
1508.20068	0.51373
1506.27204	0.49586
1504.34339	0.48023
1502.41475	0.46670
1500.48610	0.45458
1498.55745	0.44314
1496.62881	0.43200
1494.70016	0.42122
1492.77152	0.41121
1490.84287	0.40248
1488.91423	0.39544
1486.98558	0.39040
1485.05694	0.38763
1483.12829	0.38750
1481.19965	0.39051
1479.27100	0.39717
1477.34236	0.40778
1475.41371	0.42214
1473.48506	0.43937
1471.55642	0.45794
1469.62777	0.47590
1467.69913	0.49141
1465.77048	0.50317
1463.84184	0.51078
1461.91319	0.51472
1459.98455	0.51606
1458.05590	0.51602
1456.12726	0.51554
1454.19861	0.51503
1452.26997	0.51440
1450.34132	0.51328
1448.41267	0.51137
1446.48403	0.50864
1444.55538	0.50544
1442.62674	0.50243
1440.69809	0.50046
1438.76945	0.50035
1436.84080	0.50273
1434.91216	0.50793
1432.98351	0.51590
1431.05487	0.52628
1429.12622	0.53853
1427.19758	0.55211
1425.26893	0.56654
1423.34028	0.58143
1421.41164	0.59643
1419.48299	0.61114
1417.55435	0.62509
1415.62570	0.63785
1413.69706	0.64912
1411.76841	0.65883
1409.83977	0.66709
1407.91112	0.67398
1405.98248	0.67948
1404.05383	0.68339
1402.12519	0.68544
1400.19654	0.68545
1398.26789	0.68351
1396.33925	0.67998
1394.41060	0.67546
1392.48196	0.67057
1390.55331	0.66575
1388.62467	0.66123
1386.69602	0.65694
1384.76738	0.65269
1382.83873	0.64820
1380.91009	0.64321
1378.98144	0.63758
1377.05280	0.63117
1375.12415	0.62391
1373.19551	0.61579
1371.26686	0.60690
1369.33821	0.59752
1367.40957	0.58812
1365.48092	0.57925
1363.55228	0.57136
1361.62363	0.56463
1359.69499	0.55893
1357.76634	0.55389
1355.83770	0.54904
1353.90905	0.54401
1351.98041	0.53861
1350.05176	0.53286
1348.12312	0.52686
1346.19447	0.52080
1344.26582	0.51488
1342.33718	0.50930
1340.40853	0.50422
1338.47989	0.49971
1336.55124	0.49580
1334.62260	0.49244
1332.69395	0.48959
1330.76531	0.48719
1328.83666	0.48514
1326.90802	0.48332
1324.97937	0.48155
1323.05073	0.47965
1321.12208	0.47752
1319.19343	0.47518
1317.26479	0.47273
1315.33614	0.47032
1313.40750	0.46806
1311.47885	0.46599
1309.55021	0.46413
1307.62156	0.46249
1305.69292	0.46116
1303.76427	0.46032
1301.83563	0.46016
1299.90698	0.46082
1297.97834	0.46232
1296.04969	0.46452
1294.12104	0.46715
1292.19240	0.46992
1290.26375	0.47261
1288.33511	0.47513
1286.40646	0.47760
1284.47782	0.48027
1282.54917	0.48349
1280.62053	0.48752
1278.69188	0.49247
1276.76324	0.49824
1274.83459	0.50454
1272.90595	0.51095
1270.97730	0.51706
1269.04866	0.52252
1267.12001	0.52711
1265.19136	0.53071
1263.26272	0.53332
1261.33407	0.53510
1259.40543	0.53632
1257.47678	0.53728
1255.54814	0.53820
1253.61949	0.53913
1251.69085	0.53994
1249.76220	0.54040
1247.83356	0.54038
1245.90491	0.53996
1243.97627	0.53942
1242.04762	0.53906
1240.11897	0.53905
1238.19033	0.53934
1236.26168	0.53965
1234.33304	0.53970
1232.40439	0.53932
1230.47575	0.53861
1228.54710	0.53778
1226.61846	0.53701
1224.68981	0.53637
1222.76117	0.53578
1220.83252	0.53509
1218.90388	0.53420
1216.97523	0.53308
1215.04658	0.53185
1213.11794	0.53064
1211.18929	0.52958
1209.26065	0.52863
1207.33200	0.52759
1205.40336	0.52630
1203.47471	0.52484
1201.54607	0.52366
1199.61742	0.52346
1197.68878	0.52519
1195.76013	0.52962
1193.83149	0.53685
1191.90284	0.54628
1189.97419	0.55718
1188.04555	0.56906
1186.11690	0.58187
1184.18826	0.59601
1182.25961	0.61217
1180.33097	0.63080
1178.40232	0.65179
1176.47368	0.67468
1174.54503	0.69911
1172.61639	0.72495
1170.68774	0.75219
1168.75910	0.78075
1166.83045	0.81025
1164.90180	0.83994
1162.97316	0.86889
1161.04451	0.89622
1159.11587	0.92150
1157.18722	0.94481
1155.25858	0.96661
1153.32993	0.98758
1151.40129	1.00847
1149.47264	1.03012
1147.54400	1.05317
1145.61535	1.07805
1143.68671	1.10499
1141.75806	1.13408
1139.82942	1.16541
1137.90077	1.19907
1135.97212	1.23513
1134.04348	1.27339
1132.11483	1.31312
1130.18619	1.35317
1128.25754	1.39204
1126.32890	1.42834
1124.40025	1.46134
1122.47161	1.49113
1120.54296	1.51837
1118.61432	1.54397
1116.68567	1.56887
1114.75703	1.59379
1112.82838	1.61888
1110.89973	1.64385
1108.97109	1.66838
1107.04244	1.69239
1105.11380	1.71604
1103.18515	1.73970
1101.25651	1.76393
1099.32786	1.78927
1097.39922	1.81579
1095.47057	1.84290
1093.54193	1.86959
1091.61328	1.89492
1089.68464	1.91822
1087.75599	1.93909
1085.82734	1.95740
1083.89870	1.97318
1081.97005	1.98622
1080.04141	1.99562
1078.11276	2.00000
1076.18412	1.99816
1074.25547	1.98969
1072.32683	1.97514
1070.39818	1.95592
1068.46954	1.93382
1066.54089	1.91025
1064.61225	1.88571
1062.68360	1.86008
1060.75495	1.83320
1058.82631	1.80528
1056.89766	1.77703
1054.96902	1.74932
1053.04037	1.72274
1051.11173	1.69723
1049.18308	1.67230
1047.25444	1.64744
1045.32579	1.62249
1043.39715	1.59771
1041.46850	1.57360
1039.53986	1.55039
1037.61121	1.52768
1035.68256	1.50460
1033.75392	1.48020
1031.82527	1.45379
1029.89663	1.42518
1027.96798	1.39483
1026.03934	1.36364
1024.11069	1.33239
1022.18205	1.30159
1020.25340	1.27166
1018.32476	1.24306
1016.39611	1.21600
1014.46747	1.19032
1012.53882	1.16572
1010.61018	1.14200
1008.68153	1.11911
1006.75288	1.09731
1004.82424	1.07750
1002.89559	1.06086
1000.96695	1.04812
999.03830	1.03927
997.10966	1.03372
995.18101	1.03059
993.25237	1.02878
991.32372	1.02703
989.39508	1.02414
987.46643	1.01891
985.53779	1.01013
983.60914	0.99670
981.68049	0.97788
979.75185	0.95360
977.82320	0.92437
975.89456	0.89108
973.96591	0.85499
972.03727	0.81764
970.10862	0.78057
968.17998	0.74491
966.25133	0.71112
964.32269	0.67927
962.39404	0.64913
960.46540	0.62054
958.53675	0.59374
956.60810	0.56951
954.67946	0.54875
952.75081	0.53191
950.82217	0.51877
948.89352	0.50863
946.96488	0.50037
945.03623	0.49261
943.10759	0.48435
941.17894	0.47543
939.25030	0.46630
937.32165	0.45755
935.39301	0.44975
933.46436	0.44329
931.53571	0.43815
929.60707	0.43390
927.67842	0.43016
925.74978	0.42683
923.82113	0.42383
921.89249	0.42091
919.96384	0.41781
918.03520	0.41429
916.10655	0.41028
914.17791	0.40612
912.24926	0.40241
910.32062	0.39950
908.39197	0.39748
906.46333	0.39655
904.53468	0.39714
902.60603	0.39939
900.67739	0.40296
898.74874	0.40726
896.82010	0.41157
894.89145	0.41501
892.96281	0.41705
891.03416	0.41811
889.10552	0.41927
887.17687	0.42135
885.24823	0.42435
883.31958	0.42783
881.39094	0.43134
879.46229	0.43428
877.53364	0.43597
875.60500	0.43620
873.67635	0.43544
871.74771	0.43446
869.81906	0.43396
867.89042	0.43462
865.96177	0.43671
864.03313	0.43950
862.10448	0.44137
860.17584	0.44073
858.24719	0.43688
856.31855	0.43015
854.38990	0.42171
852.46125	0.41320
850.53261	0.40598
848.60396	0.40065
846.67532	0.39693
844.74667	0.39414
842.81803	0.39153
840.88938	0.38847
838.96074	0.38472
837.03209	0.38058
835.10345	0.37647
833.17480	0.37268
831.24616	0.36923
829.31751	0.36604
827.38886	0.36300
825.46022	0.36019
823.53157	0.35836
821.60293	0.35876
819.67428	0.36228
817.74564	0.36857
815.81699	0.37603
813.88835	0.38259
811.95970	0.38666
810.03106	0.38776
808.10241	0.38682
806.17377	0.38573
804.24512	0.38622
802.31647	0.38873
800.38783	0.39236
798.45918	0.39592
796.53054	0.39871
794.60189	0.40075
792.67325	0.40248
790.74460	0.40458
788.81596	0.40730
786.88731	0.40995
784.95867	0.41121
783.03002	0.41011
781.10138	0.40644
779.17273	0.40066
777.24409	0.39379
775.31544	0.38709
773.38679	0.38128
771.45815	0.37624
769.52950	0.37163
767.60086	0.36777
765.67221	0.36558
763.74357	0.36594
761.81492	0.36906
759.88628	0.37418
757.95763	0.37947
756.02899	0.38289
754.10034	0.38363
752.17170	0.38276
750.24305	0.38250
748.31440	0.38458
746.38576	0.38917
744.45711	0.39502
742.52847	0.40047
740.59982	0.40428
738.67118	0.40635
736.74253	0.40767
734.81389	0.40940
732.88524	0.41177
730.95660	0.41402
729.02795	0.41527
727.09931	0.41516
725.17066	0.41395
723.24201	0.41231
721.31337	0.41116
719.38472	0.41117
717.45608	0.41258
715.52743	0.41525
713.59879	0.41887
711.67014	0.42309
709.74150	0.42741
707.81285	0.43138
705.88421	0.43466
703.95556	0.43724
702.02692	0.43939
700.09827	0.44155
698.16962	0.44415
696.24098	0.44748
694.31233	0.45156
692.38369	0.45607
690.45504	0.46041
688.52640	0.46395
686.59775	0.46627
684.66911	0.46736
682.74046	0.46748
680.81182	0.46703
678.88317	0.46640
676.95453	0.46578
675.02588	0.46514
673.09723	0.46447
671.16859	0.46394
669.23994	0.46381
667.31130	0.46428
665.38265	0.46542
663.45401	0.46716
661.52536	0.46933
659.59672	0.47171
657.66807	0.47418
655.73943	0.47669
653.81078	0.47917
651.88214	0.48152
649.95349	0.48362
648.02485	0.48537
646.09620	0.48677
644.16755	0.48796
642.23891	0.48916
640.31026	0.49057
638.38162	0.49233
636.45297	0.49472
634.52433	0.49824
632.59568	0.50369
630.66704	0.51214
628.73839	0.52472
626.80975	0.54149
624.88110	0.55980
622.95246	0.57418
621.02381	0.57863
619.09516	0.57006
617.16652	0.55067
615.23787	0.52814
613.30923	0.51300
611.38058	0.51306
609.45194	0.52838
607.52329	0.55114
605.59465	0.57063
603.66600	0.57939
601.73736	0.57692
599.80871	0.56929
597.88007	0.56517
595.95142	0.57038
594.02277	0.58477
592.09413	0.60311
590.16548	0.61871
588.23684	0.62694
586.30819	0.62688
584.37955	0.62106
582.45090	0.61382
580.52226	0.60936
578.59361	0.61041
576.66497	0.61769
574.73632	0.63001
572.80768	0.64499
570.87903	0.66009
568.95038	0.67362
567.02174	0.68529
565.09309	0.69612
563.16445	0.70759
561.23580	0.72071
559.30716	0.73555
557.37851	0.75125
555.44987	0.76645
553.52122	0.77987
551.59258	0.79104
549.66393	0.80057
547.73529	0.80977
545.80664	0.81985
543.87800	0.83119
541.94935	0.84307
540.02070	0.85386
538.09206	0.86166
536.16341	0.86517
534.23477	0.86402
532.30612	0.85864
530.37748	0.84973
528.44883	0.83788
526.52019	0.82361
524.59154	0.80759
522.66290	0.79055
520.73425	0.77302
518.80561	0.75497
516.87696	0.73579
514.94831	0.71454
513.01967	0.69051
511.09102	0.66396
509.16238	0.63640
507.23373	0.61020
505.30509	0.58770
503.37644	0.57044
501.44780	0.55885
499.51915	0.55232
497.59051	0.54957
495.66186	0.54944
493.73322	0.55132
491.80457	0.55512
489.87592	0.56083
487.94728	0.56797
486.01863	0.57555
484.08999	0.58238
482.16134	0.58782
480.23270	0.59228
478.30405	0.59709
476.37541	0.60358
474.44676	0.61207
472.51812	0.62121
470.58947	0.62811
468.66083	0.62963
466.73218	0.62414
464.80353	0.61232
462.87489	0.59680
460.94624	0.58085
459.01760	0.56684
457.08895	0.55536
455.16031	0.54519
453.23166	0.53443
451.30302	0.52187
449.37437	0.50772
447.44573	0.49330
445.51708	0.48024
443.58844	0.46970
441.65979	0.46199
439.73114	0.45662
437.80250	0.45258
435.87385	0.44869
433.94521	0.44383
432.01656	0.43714
430.08792	0.42819
428.15927	0.41711
426.23063	0.40461
424.30198	0.39178
422.37334	0.37958
420.44469	0.36834
418.51605	0.35773
416.58740	0.34705
414.65876	0.33576
412.73011	0.32384
410.80146	0.31192
408.87282	0.30105
406.94417	0.29238
405.01553	0.28657
403.08688	0.28340
401.15824	0.28165
399.22959	0.27934
397.30095	0.27442
395.37230	0.26548
393.44366	0.25244
391.51501	0.23681
389.58637	0.22118
387.65772	0.20817
385.72907	0.19932
383.80043	0.19469
381.87178	0.19310
379.94314	0.19265
378.01449	0.19156
376.08585	0.18891
374.15720	0.18489
372.22856	0.18045
370.29991	0.17676
368.37127	0.17470
366.44262	0.17419
364.51398	0.17399
362.58533	0.17201
360.65668	0.16634
358.72804	0.15622
356.79939	0.14253
354.87075	0.12765
352.94210	0.11470
351.01346	0.10620
349.08481	0.10310
347.15617	0.10456
345.22752	0.10855
343.29888	0.11265
341.37023	0.11477
339.44159	0.11373
337.51294	0.10923
335.58429	0.10166
333.65565	0.09188
331.72700	0.08117
329.79836	0.07108
327.86971	0.06289
325.94107	0.05714
324.01242	0.05332
322.08378	0.05023
320.15513	0.04675
318.22649	0.04175
316.29784	0.03539
314.36920	0.02855
312.44055	0.02231
310.51190	0.01755
308.58326	0.01460
306.65461	0.01324
304.72597	0.01309
302.79732	0.01379
300.86868	0.01489
298.94003	0.01602
297.01139	0.01712
295.08274	0.01834
293.15410	0.01965
291.22545	0.02081
289.29681	0.02171
287.36816	0.02266
285.43952	0.02442
283.51087	0.02799
281.58222	0.03398
279.65358	0.04202
277.72493	0.05056
275.79629	0.05778
273.86764	0.06264
271.93900	0.06546
270.01035	0.06737
268.08171	0.06915
266.15306	0.07052
264.22442	0.07033
262.29577	0.06765
260.36713	0.06295
258.43848	0.05857
256.50983	0.05788
254.58119	0.06337
252.65254	0.07523
250.72390	0.09127
248.79525	0.10829
246.86661	0.12353
244.93796	0.13554
243.00932	0.14426
241.08067	0.15014
239.15203	0.15285
237.22338	0.15125
235.29474	0.14455
233.36609	0.13354
231.43744	0.12099
229.50880	0.11095
227.58015	0.10751
225.65151	0.11306
223.72286	0.12691
221.79422	0.14535
219.86557	0.16303
217.93693	0.17477
216.00828	0.17686
214.07964	0.16813
212.15099	0.15077
210.22235	0.13052
208.29370	0.11554
206.36505	0.11390
204.43641	0.13037
202.50776	0.16394
200.57912	0.20726
198.65047	0.24904
196.72183	0.27889
194.79318	0.29180
192.86454	0.28983
190.93589	0.28008
189.00725	0.27050
187.07860	0.26624
185.14996	0.26854
183.22131	0.27619
181.29267	0.28763
179.36402	0.30172
177.43537	0.31703
175.50673	0.33074
173.57808	0.33847
171.64944	0.33633
169.72079	0.32468
167.79215	0.31069
165.86350	0.30704
163.93486	0.32699
162.00621	0.38830
160.07757	0.47260
158.14892	0.56017
156.22028	0.63319
154.29163	0.63319
152.36298	0.63319
150.43434	0.63319
148.50569	0.63319
