4497.60101	0.02184
4495.67236	0.02184
4493.74372	0.02184
4491.81507	0.02184
4489.88643	0.02184
4487.95778	0.02337
4486.02914	0.02579
4484.10049	0.02942
4482.17185	0.03392
4480.24320	0.03860
4478.31455	0.04324
4476.38591	0.04689
4474.45726	0.04796
4472.52862	0.04621
4470.59997	0.04311
4468.67133	0.03997
4466.74268	0.03724
4464.81404	0.03522
4462.88539	0.03419
4460.95675	0.03404
4459.02810	0.03481
4457.09946	0.03717
4455.17081	0.04130
4453.24216	0.04576
4451.31352	0.04836
4449.38487	0.04787
4447.45623	0.04446
4445.52758	0.03953
4443.59894	0.03525
4441.67029	0.03362
4439.74165	0.03508
4437.81300	0.03850
4435.88436	0.04201
4433.95571	0.04378
4432.02707	0.04278
4430.09842	0.03973
4428.16978	0.03699
4426.24113	0.03708
4424.31248	0.04139
4422.38384	0.04951
4420.45519	0.05924
4418.52655	0.06731
4416.59790	0.07121
4414.66926	0.07070
4412.74061	0.06761
4410.81197	0.06444
4408.88332	0.06313
4406.95468	0.06424
4405.02603	0.06676
4403.09739	0.06857
4401.16874	0.06754
4399.24009	0.06263
4397.31145	0.05450
4395.38280	0.04521
4393.45416	0.03743
4391.52551	0.03334
4389.59687	0.03369
4387.66822	0.03763
4385.73958	0.04345
4383.81093	0.04972
4381.88229	0.05563
4379.95364	0.06066
4378.02500	0.06430
4376.09635	0.06623
4374.16770	0.06624
4372.23906	0.06406
4370.31041	0.05950
4368.38177	0.05303
4366.45312	0.04559
4364.52448	0.03810
4362.59583	0.03158
4360.66719	0.02756
4358.73854	0.02733
4356.80990	0.03076
4354.88125	0.03626
4352.95261	0.04191
4351.02396	0.04598
4349.09531	0.04727
4347.16667	0.04614
4345.23802	0.04465
4343.30938	0.04486
4341.38073	0.04731
4339.45209	0.05135
4337.52344	0.05586
4335.59480	0.05928
4333.66615	0.05994
4331.73751	0.05729
4329.80886	0.05213
4327.88022	0.04530
4325.95157	0.03701
4324.02292	0.02797
4322.09428	0.01994
4320.16563	0.01455
4318.23699	0.01242
4316.30834	0.01350
4314.37970	0.01724
4312.45105	0.02221
4310.52241	0.02660
4308.59376	0.02952
4306.66512	0.03123
4304.73647	0.03215
4302.80783	0.03254
4300.87918	0.03292
4298.95054	0.03377
4297.02189	0.03506
4295.09324	0.03641
4293.16460	0.03746
4291.23595	0.03786
4289.30731	0.03712
4287.37866	0.03481
4285.45002	0.03116
4283.52137	0.02723
4281.59273	0.02474
4279.66408	0.02533
4277.73544	0.02953
4275.80679	0.03650
4273.87815	0.04408
4271.94950	0.04936
4270.02085	0.05015
4268.09221	0.04672
4266.16356	0.04185
4264.23492	0.03871
4262.30627	0.03889
4260.37763	0.04242
4258.44898	0.04811
4256.52034	0.05334
4254.59169	0.05548
4252.66305	0.05424
4250.73440	0.05183
4248.80576	0.05086
4246.87711	0.05255
4244.94846	0.05661
4243.01982	0.06116
4241.09117	0.06307
4239.16253	0.05997
4237.23388	0.05246
4235.30524	0.04375
4233.37659	0.03735
4231.44795	0.03515
4229.51930	0.03688
4227.59066	0.04050
4225.66201	0.04347
4223.73337	0.04422
4221.80472	0.04287
4219.87607	0.04069
4217.94743	0.03910
4216.01878	0.03887
4214.09014	0.04010
4212.16149	0.04241
4210.23285	0.04526
4208.30420	0.04799
4206.37556	0.05013
4204.44691	0.05166
4202.51827	0.05290
4200.58962	0.05410
4198.66098	0.05521
4196.73233	0.05605
4194.80368	0.05643
4192.87504	0.05618
4190.94639	0.05549
4189.01775	0.05511
4187.08910	0.05598
4185.16046	0.05835
4183.23181	0.06138
4181.30317	0.06364
4179.37452	0.06393
4177.44588	0.06163
4175.51723	0.05699
4173.58859	0.05113
4171.65994	0.04566
4169.73130	0.04194
4167.80265	0.04047
4165.87400	0.04083
4163.94536	0.04214
4162.01671	0.04362
4160.08807	0.04469
4158.15942	0.04469
4156.23078	0.04313
4154.30213	0.04035
4152.37349	0.03722
4150.44484	0.03449
4148.51620	0.03283
4146.58755	0.03306
4144.65891	0.03544
4142.73026	0.03898
4140.80161	0.04210
4138.87297	0.04383
4136.94432	0.04414
4135.01568	0.04348
4133.08703	0.04263
4131.15839	0.04240
4129.22974	0.04284
4127.30110	0.04335
4125.37245	0.04344
4123.44381	0.04345
4121.51516	0.04428
4119.58652	0.04652
4117.65787	0.04988
4115.72922	0.05316
4113.80058	0.05477
4111.87193	0.05366
4109.94329	0.05010
4108.01464	0.04566
4106.08600	0.04207
4104.15735	0.03989
4102.22871	0.03855
4100.30006	0.03723
4098.37142	0.03547
4096.44277	0.03347
4094.51413	0.03240
4092.58548	0.03391
4090.65683	0.03844
4088.72819	0.04425
4086.79954	0.04866
4084.87090	0.04971
4082.94225	0.04685
4081.01361	0.04099
4079.08496	0.03470
4077.15632	0.03100
4075.22767	0.03123
4073.29903	0.03416
4071.37038	0.03743
4069.44174	0.03909
4067.51309	0.03830
4065.58444	0.03588
4063.65580	0.03400
4061.72715	0.03463
4059.79851	0.03789
4057.86986	0.04210
4055.94122	0.04500
4054.01257	0.04498
4052.08393	0.04218
4050.15528	0.03843
4048.22664	0.03597
4046.29799	0.03589
4044.36935	0.03789
4042.44070	0.04064
4040.51206	0.04248
4038.58341	0.04261
4036.65476	0.04156
4034.72612	0.04024
4032.79747	0.03905
4030.86883	0.03807
4028.94018	0.03753
4027.01154	0.03758
4025.08289	0.03827
4023.15425	0.03989
4021.22560	0.04249
4019.29696	0.04532
4017.36831	0.04734
4015.43967	0.04809
4013.51102	0.04779
4011.58237	0.04696
4009.65373	0.04626
4007.72508	0.04629
4005.79644	0.04728
4003.86779	0.04886
4001.93915	0.05057
4000.01050	0.05217
3998.08186	0.05368
3996.15321	0.05525
3994.22457	0.05700
3992.29592	0.05886
3990.36728	0.06050
3988.43863	0.06149
3986.50998	0.06146
3984.58134	0.06032
3982.65269	0.05835
3980.72405	0.05599
3978.79540	0.05362
3976.86676	0.05151
3974.93811	0.04991
3973.00947	0.04911
3971.08082	0.04928
3969.15218	0.05038
3967.22353	0.05206
3965.29489	0.05378
3963.36624	0.05495
3961.43759	0.05537
3959.50895	0.05535
3957.58030	0.05551
3955.65166	0.05625
3953.72301	0.05731
3951.79437	0.05784
3949.86572	0.05687
3947.93708	0.05395
3946.00843	0.04951
3944.07979	0.04475
3942.15114	0.04111
3940.22250	0.03958
3938.29385	0.04032
3936.36521	0.04276
3934.43656	0.04606
3932.50791	0.04948
3930.57927	0.05247
3928.65062	0.05463
3926.72198	0.05577
3924.79333	0.05589
3922.86469	0.05526
3920.93604	0.05434
3919.00740	0.05370
3917.07875	0.05365
3915.15011	0.05404
3913.22146	0.05441
3911.29282	0.05426
3909.36417	0.05339
3907.43552	0.05206
3905.50688	0.05074
3903.57823	0.04984
3901.64959	0.04942
3899.72094	0.04927
3897.79230	0.04902
3895.86365	0.04846
3893.93501	0.04774
3892.00636	0.04721
3890.07772	0.04715
3888.14907	0.04756
3886.22043	0.04816
3884.29178	0.04857
3882.36313	0.04844
3880.43449	0.04771
3878.50584	0.04651
3876.57720	0.04517
3874.64855	0.04406
3872.71991	0.04358
3870.79126	0.04404
3868.86262	0.04548
3866.93397	0.04762
3865.00533	0.04988
3863.07668	0.05155
3861.14804	0.05206
3859.21939	0.05137
3857.29074	0.05018
3855.36210	0.04949
3853.43345	0.05014
3851.50481	0.05237
3849.57616	0.05587
3847.64752	0.05990
3845.71887	0.06355
3843.79023	0.06613
3841.86158	0.06743
3839.93294	0.06754
3838.00429	0.06662
3836.07565	0.06486
3834.14700	0.06263
3832.21835	0.06037
3830.28971	0.05850
3828.36106	0.05733
3826.43242	0.05702
3824.50377	0.05752
3822.57513	0.05842
3820.64648	0.05904
3818.71784	0.05869
3816.78919	0.05702
3814.86055	0.05424
3812.93190	0.05134
3811.00326	0.04980
3809.07461	0.05097
3807.14597	0.05538
3805.21732	0.06227
3803.28867	0.06979
3801.36003	0.07568
3799.43138	0.07823
3797.50274	0.07699
3795.57409	0.07282
3793.64545	0.06734
3791.71680	0.06218
3789.78816	0.05835
3787.85951	0.05608
3785.93087	0.05500
3784.00222	0.05461
3782.07358	0.05455
3780.14493	0.05475
3778.21628	0.05533
3776.28764	0.05639
3774.35899	0.05789
3772.43035	0.05953
3770.50170	0.06090
3768.57306	0.06164
3766.64441	0.06166
3764.71577	0.06132
3762.78712	0.06148
3760.85848	0.06305
3758.92983	0.06659
3757.00119	0.07193
3755.07254	0.07824
3753.14389	0.08427
3751.21525	0.08875
3749.28660	0.09088
3747.35796	0.09056
3745.42931	0.08821
3743.50067	0.08452
3741.57202	0.08029
3739.64338	0.07634
3737.71473	0.07319
3735.78609	0.07090
3733.85744	0.06916
3731.92880	0.06749
3730.00015	0.06543
3728.07150	0.06282
3726.14286	0.06004
3724.21421	0.05805
3722.28557	0.05785
3720.35692	0.05998
3718.42828	0.06426
3716.49963	0.06986
3714.57099	0.07551
3712.64234	0.07991
3710.71370	0.08222
3708.78505	0.08233
3706.85641	0.08063
3704.92776	0.07770
3702.99911	0.07434
3701.07047	0.07142
3699.14182	0.06978
3697.21318	0.06999
3695.28453	0.07224
3693.35589	0.07621
3691.42724	0.08112
3689.49860	0.08607
3687.56995	0.09065
3685.64131	0.09533
3683.71266	0.10122
3681.78402	0.10941
3679.85537	0.12026
3677.92673	0.13283
3675.99808	0.14493
3674.06943	0.15401
3672.14079	0.15844
3670.21214	0.15839
3668.28350	0.15583
3666.35485	0.15368
3664.42621	0.15451
3662.49756	0.15952
3660.56892	0.16819
3658.64027	0.17898
3656.71163	0.19040
3654.78298	0.20179
3652.85434	0.21339
3650.92569	0.22594
3648.99704	0.24002
3647.06840	0.25541
3645.13975	0.27108
3643.21111	0.28576
3641.28246	0.29872
3639.35382	0.31022
3637.42517	0.32140
3635.49653	0.33369
3633.56788	0.34822
3631.63924	0.36528
3629.71059	0.38416
3627.78195	0.40364
3625.85330	0.42262
3623.92465	0.44042
3621.99601	0.45675
3620.06736	0.47158
3618.13872	0.48521
3616.21007	0.49820
3614.28143	0.51127
3612.35278	0.52509
3610.42414	0.54023
3608.49549	0.55693
3606.56685	0.57491
3604.63820	0.59346
3602.70956	0.61175
3600.78091	0.62898
3598.85226	0.64474
3596.92362	0.65920
3594.99497	0.67313
3593.06633	0.68751
3591.13768	0.70307
3589.20904	0.71985
3587.28039	0.73714
3585.35175	0.75388
3583.42310	0.76941
3581.49446	0.78398
3579.56581	0.79860
3577.63717	0.81453
3575.70852	0.83267
3573.77988	0.85310
3571.85123	0.87498
3569.92258	0.89691
3567.99394	0.91739
3566.06529	0.93534
3564.13665	0.95039
3562.20800	0.96308
3560.27936	0.97474
3558.35071	0.98694
3556.42207	1.00086
3554.49342	1.01674
3552.56478	1.03387
3550.63613	1.05089
3548.70749	1.06668
3546.77884	1.08109
3544.85019	1.09512
3542.92155	1.11029
3540.99290	1.12777
3539.06426	1.14763
3537.13561	1.16876
3535.20697	1.18946
3533.27832	1.20831
3531.34968	1.22498
3529.42103	1.24027
3527.49239	1.25554
3525.56374	1.27185
3523.63510	1.28936
3521.70645	1.30734
3519.77780	1.32471
3517.84916	1.34072
3515.92051	1.35543
3513.99187	1.36954
3512.06322	1.38389
3510.13458	1.39891
3508.20593	1.41454
3506.27729	1.43042
3504.34864	1.44630
3502.42000	1.46230
3500.49135	1.47890
3498.56271	1.49646
3496.63406	1.51476
3494.70541	1.53284
3492.77677	1.54947
3490.84812	1.56382
3488.91948	1.57588
3486.99083	1.58639
3485.06219	1.59649
3483.13354	1.60714
3481.20490	1.61870
3479.27625	1.63091
3477.34761	1.64325
3475.41896	1.65537
3473.49032	1.66724
3471.56167	1.67892
3469.63302	1.69037
3467.70438	1.70142
3465.77573	1.71195
3463.84709	1.72190
3461.91844	1.73138
3459.98980	1.74057
3458.06115	1.74961
3456.13251	1.75847
3454.20386	1.76706
3452.27522	1.77548
3450.34657	1.78419
3448.41793	1.79384
3446.48928	1.80488
3444.56064	1.81728
3442.63199	1.83044
3440.70334	1.84346
3438.77470	1.85546
3436.84605	1.86600
3434.91741	1.87517
3432.98876	1.88346
3431.06012	1.89129
3429.13147	1.89875
3427.20283	1.90554
3425.27418	1.91137
3423.34554	1.91626
3421.41689	1.92064
3419.48825	1.92526
3417.55960	1.93096
3415.63095	1.93810
3413.70231	1.94636
3411.77366	1.95483
3409.84502	1.96257
3407.91637	1.96890
3405.98773	1.97348
3404.05908	1.97641
3402.13044	1.97810
3400.20179	1.97909
3398.27315	1.97985
3396.34450	1.98074
3394.41586	1.98193
3392.48721	1.98327
3390.55856	1.98437
3388.62992	1.98500
3386.70127	1.98529
3384.77263	1.98577
3382.84398	1.98713
3380.91534	1.98977
3378.98669	1.99342
3377.05805	1.99709
3375.12940	1.99955
3373.20076	2.00000
3371.27211	1.99834
3369.34347	1.99506
3367.41482	1.99085
3365.48617	1.98633
3363.55753	1.98178
3361.62888	1.97736
3359.70024	1.97330
3357.77159	1.97003
3355.84295	1.96792
3353.91430	1.96700
3351.98566	1.96691
3350.05701	1.96708
3348.12837	1.96693
3346.19972	1.96608
3344.27108	1.96445
3342.34243	1.96230
3340.41378	1.95998
3338.48514	1.95788
3336.55649	1.95634
3334.62785	1.95570
3332.69920	1.95608
3330.77056	1.95724
3328.84191	1.95862
3326.91327	1.95946
3324.98462	1.95904
3323.05598	1.95685
3321.12733	1.95275
3319.19869	1.94712
3317.27004	1.94083
3315.34140	1.93499
3313.41275	1.93069
3311.48410	1.92862
3309.55546	1.92872
3307.62681	1.93010
3305.69817	1.93137
3303.76952	1.93131
3301.84088	1.92949
3299.91223	1.92647
3297.98359	1.92350
3296.05494	1.92184
3294.12630	1.92203
3292.19765	1.92359
3290.26901	1.92529
3288.34036	1.92582
3286.41171	1.92434
3284.48307	1.92067
3282.55442	1.91520
3280.62578	1.90849
3278.69713	1.90099
3276.76849	1.89294
3274.83984	1.88465
3272.91120	1.87675
3270.98255	1.87015
3269.05391	1.86565
3267.12526	1.86352
3265.19662	1.86325
3263.26797	1.86365
3261.33932	1.86326
3259.41068	1.86097
3257.48203	1.85642
3255.55339	1.85004
3253.62474	1.84260
3251.69610	1.83474
3249.76745	1.82676
3247.83881	1.81860
3245.91016	1.81012
3243.98152	1.80130
3242.05287	1.79245
3240.12423	1.78414
3238.19558	1.77699
3236.26693	1.77136
3234.33829	1.76706
3232.40964	1.76337
3230.48100	1.75932
3228.55235	1.75403
3226.62371	1.74710
3224.69506	1.73876
3222.76642	1.72967
3220.83777	1.72064
3218.90913	1.71214
3216.98048	1.70422
3215.05184	1.69671
3213.12319	1.68949
3211.19455	1.68255
3209.26590	1.67590
3207.33725	1.66943
3205.40861	1.66287
3203.47996	1.65585
3201.55132	1.64804
3199.62267	1.63935
3197.69403	1.63005
3195.76538	1.62058
3193.83674	1.61144
3191.90809	1.60301
3189.97945	1.59548
3188.05080	1.58870
3186.12216	1.58209
3184.19351	1.57493
3182.26486	1.56669
3180.33622	1.55727
3178.40757	1.54707
3176.47893	1.53694
3174.55028	1.52772
3172.62164	1.51983
3170.69299	1.51303
3168.76435	1.50667
3166.83570	1.50007
3164.90706	1.49293
3162.97841	1.48539
3161.04977	1.47786
3159.12112	1.47082
3157.19247	1.46451
3155.26383	1.45873
3153.33518	1.45300
3151.40654	1.44682
3149.47789	1.43987
3147.54925	1.43209
3145.62060	1.42364
3143.69196	1.41486
3141.76331	1.40609
3139.83467	1.39755
3137.90602	1.38919
3135.97738	1.38070
3134.04873	1.37166
3132.12008	1.36182
3130.19144	1.35139
3128.26279	1.34105
3126.33415	1.33160
3124.40550	1.32352
3122.47686	1.31658
3120.54821	1.30995
3118.61957	1.30265
3116.69092	1.29411
3114.76228	1.28466
3112.83363	1.27535
3110.90499	1.26734
3108.97634	1.26115
3107.04769	1.25652
3105.11905	1.25246
3103.19040	1.24785
3101.26176	1.24190
3099.33311	1.23454
3097.40447	1.22626
3095.47582	1.21782
3093.54718	1.20993
3091.61853	1.20303
3089.68989	1.19719
3087.76124	1.19214
3085.83260	1.18744
3083.90395	1.18256
3081.97531	1.17690
3080.04666	1.17004
3078.11801	1.16186
3076.18937	1.15266
3074.26072	1.14300
3072.33208	1.13354
3070.40343	1.12488
3068.47479	1.11735
3066.54614	1.11092
3064.61750	1.10525
3062.68885	1.09993
3060.76021	1.09458
3058.83156	1.08886
3056.90292	1.08250
3054.97427	1.07529
3053.04562	1.06725
3051.11698	1.05855
3049.18833	1.04947
3047.25969	1.04042
3045.33104	1.03191
3043.40240	1.02444
3041.47375	1.01829
3039.54511	1.01350
3037.61646	1.00978
3035.68782	1.00649
3033.75917	1.00279
3031.83053	0.99790
3029.90188	0.99159
3027.97323	0.98421
3026.04459	0.97645
3024.11594	0.96895
3022.18730	0.96204
3020.25865	0.95574
3018.33001	0.94983
3016.40136	0.94421
3014.47272	0.93907
3012.54407	0.93478
3010.61543	0.93140
3008.68678	0.92851
3006.75814	0.92541
3004.82949	0.92154
3002.90084	0.91675
3000.97220	0.91139
2999.04355	0.90612
2997.11491	0.90150
2995.18626	0.89768
2993.25762	0.89442
2991.32897	0.89145
2989.40033	0.88899
2987.47168	0.88772
2985.54304	0.88834
2983.61439	0.89089
2981.68575	0.89465
2979.75710	0.89857
2977.82845	0.90173
2975.89981	0.90381
2973.97116	0.90522
2972.04252	0.90682
2970.11387	0.90889
2968.18523	0.91068
2966.25658	0.91099
2964.32794	0.90928
2962.39929	0.90603
2960.47065	0.90239
2958.54200	0.89953
2956.61336	0.89818
2954.68471	0.89804
2952.75607	0.89794
2950.82742	0.89676
2948.89877	0.89436
2946.97013	0.89156
2945.04148	0.88960
2943.11284	0.88955
2941.18419	0.89207
2939.25555	0.89705
2937.32690	0.90356
2935.39826	0.91042
2933.46961	0.91667
2931.54097	0.92176
2929.61232	0.92536
2927.68368	0.92724
2925.75503	0.92719
2923.82638	0.92479
2921.89774	0.91959
2919.96909	0.91142
2918.04045	0.90052
2916.11180	0.88739
2914.18316	0.87278
2912.25451	0.85759
2910.32587	0.84263
2908.39722	0.82852
2906.46858	0.81556
2904.53993	0.80376
2902.61129	0.79271
2900.68264	0.78198
2898.75399	0.77165
2896.82535	0.76231
2894.89670	0.75472
2892.96806	0.74932
2891.03941	0.74584
2889.11077	0.74322
2887.18212	0.74024
2885.25348	0.73633
2883.32483	0.73189
2881.39619	0.72798
2879.46754	0.72550
2877.53890	0.72452
2875.61025	0.72400
2873.68160	0.72242
2871.75296	0.71873
2869.82431	0.71303
2867.89567	0.70667
2865.96702	0.70150
2864.03838	0.69895
2862.10973	0.69938
2860.18109	0.70210
2858.25244	0.70573
2856.32380	0.70859
2854.39515	0.70908
2852.46651	0.70620
2850.53786	0.69971
2848.60922	0.68987
2846.68057	0.67748
2844.75192	0.66404
2842.82328	0.65126
2840.89463	0.64025
2838.96599	0.63120
2837.03734	0.62370
2835.10870	0.61691
2833.18005	0.60982
2831.25141	0.60176
2829.32276	0.59288
2827.39412	0.58388
2825.46547	0.57551
2823.53683	0.56840
2821.60818	0.56309
2819.67953	0.55972
2817.75089	0.55799
2815.82224	0.55735
2813.89360	0.55703
2811.96495	0.55618
2810.03631	0.55425
2808.10766	0.55143
2806.17902	0.54824
2804.25037	0.54500
2802.32173	0.54168
2800.39308	0.53792
2798.46444	0.53330
2796.53579	0.52775
2794.60714	0.52183
2792.67850	0.51643
2790.74985	0.51220
2788.82121	0.50923
2786.89256	0.50710
2784.96392	0.50520
2783.03527	0.50324
2781.10663	0.50143
2779.17798	0.50004
2777.24934	0.49901
2775.32069	0.49786
2773.39205	0.49616
2771.46340	0.49368
2769.53475	0.49045
2767.60611	0.48687
2765.67746	0.48371
2763.74882	0.48162
2761.82017	0.48059
2759.89153	0.47986
2757.96288	0.47852
2756.03424	0.47611
2754.10559	0.47261
2752.17695	0.46846
2750.24830	0.46457
2748.31966	0.46195
2746.39101	0.46087
2744.46236	0.46062
2742.53372	0.46006
2740.60507	0.45833
2738.67643	0.45506
2736.74778	0.45038
2734.81914	0.44514
2732.89049	0.44056
2730.96185	0.43760
2729.03320	0.43647
2727.10456	0.43679
2725.17591	0.43777
2723.24727	0.43838
2721.31862	0.43780
2719.38998	0.43586
2717.46133	0.43293
2715.53268	0.42945
2713.60404	0.42585
2711.67539	0.42261
2709.74675	0.42013
2707.81810	0.41837
2705.88946	0.41700
2703.96081	0.41571
2702.03217	0.41415
2700.10352	0.41186
2698.17488	0.40867
2696.24623	0.40518
2694.31759	0.40223
2692.38894	0.40013
2690.46029	0.39863
2688.53165	0.39732
2686.60300	0.39584
2684.67436	0.39389
2682.74571	0.39162
2680.81707	0.38968
2678.88842	0.38846
2676.95978	0.38757
2675.03113	0.38631
2673.10249	0.38423
2671.17384	0.38136
2669.24520	0.37816
2667.31655	0.37537
2665.38790	0.37359
2663.45926	0.37279
2661.53061	0.37225
2659.60197	0.37121
2657.67332	0.36952
2655.74468	0.36759
2653.81603	0.36592
2651.88739	0.36466
2649.95874	0.36349
2648.03010	0.36169
2646.10145	0.35850
2644.17281	0.35367
2642.24416	0.34782
2640.31551	0.34218
2638.38687	0.33793
2636.45822	0.33561
2634.52958	0.33513
2632.60093	0.33597
2630.67229	0.33745
2628.74364	0.33877
2626.81500	0.33925
2624.88635	0.33859
2622.95771	0.33695
2621.02906	0.33467
2619.10042	0.33214
2617.17177	0.33002
2615.24312	0.32900
2613.31448	0.32913
2611.38583	0.32972
2609.45719	0.32976
2607.52854	0.32841
2605.59990	0.32525
2603.67125	0.32053
2601.74261	0.31558
2599.81396	0.31219
2597.88532	0.31136
2595.95667	0.31275
2594.02803	0.31493
2592.09938	0.31616
2590.17074	0.31515
2588.24209	0.31166
2586.31344	0.30661
2584.38480	0.30150
2582.45615	0.29746
2580.52751	0.29486
2578.59886	0.29351
2576.67022	0.29301
2574.74157	0.29302
2572.81293	0.29326
2570.88428	0.29371
2568.95564	0.29469
2567.02699	0.29640
2565.09835	0.29848
2563.16970	0.30049
2561.24105	0.30232
2559.31241	0.30375
2557.38376	0.30415
2555.45512	0.30334
2553.52647	0.30214
2551.59783	0.30127
2549.66918	0.30070
2547.74054	0.30036
2545.81189	0.30045
2543.88325	0.30080
2541.95460	0.30077
2540.02596	0.30001
2538.09731	0.29889
2536.16866	0.29771
2534.24002	0.29634
2532.31137	0.29465
2530.38273	0.29268
2528.45408	0.29053
2526.52544	0.28835
2524.59679	0.28655
2522.66815	0.28568
2520.73950	0.28616
2518.81086	0.28835
2516.88221	0.29261
2514.95357	0.29889
2513.02492	0.30619
2511.09627	0.31295
2509.16763	0.31760
2507.23898	0.31880
2505.31034	0.31600
2503.38169	0.31050
2501.45305	0.30508
2499.52440	0.30197
2497.59576	0.30132
2495.66711	0.30167
2493.73847	0.30123
2491.80982	0.29878
2489.88118	0.29454
2487.95253	0.29058
2486.02389	0.28965
2484.09524	0.29311
2482.16659	0.29997
2480.23795	0.30768
2478.30930	0.31376
2476.38066	0.31688
2474.45201	0.31698
2472.52337	0.31482
2470.59472	0.31130
2468.66608	0.30715
2466.73743	0.30282
2464.80879	0.29867
2462.88014	0.29529
2460.95150	0.29351
2459.02285	0.29361
2457.09420	0.29488
2455.16556	0.29584
2453.23691	0.29513
2451.30827	0.29211
2449.37962	0.28703
2447.45098	0.28103
2445.52233	0.27604
2443.59369	0.27413
2441.66504	0.27649
2439.73640	0.28286
2437.80775	0.29165
2435.87911	0.30043
2433.95046	0.30645
2432.02181	0.30801
2430.09317	0.30559
2428.16452	0.30153
2426.23588	0.29840
2424.30723	0.29749
2422.37859	0.29837
2420.44994	0.29940
2418.52130	0.29898
2416.59265	0.29667
2414.66401	0.29333
2412.73536	0.29026
2410.80672	0.28815
2408.87807	0.28662
2406.94942	0.28489
2405.02078	0.28280
2403.09213	0.28119
2401.16349	0.28118
2399.23484	0.28319
2397.30620	0.28655
2395.37755	0.28980
2393.44891	0.29144
2391.52026	0.29067
2389.59162	0.28790
2387.66297	0.28447
2385.73433	0.28200
2383.80568	0.28176
2381.87703	0.28418
2379.94839	0.28867
2378.01974	0.29374
2376.09110	0.29748
2374.16245	0.29822
2372.23381	0.29505
2370.30516	0.28822
2368.37652	0.27923
2366.44787	0.27027
2364.51923	0.26344
2362.59058	0.26022
2360.66194	0.26096
2358.73329	0.26484
2356.80465	0.27002
2354.87600	0.27435
2352.94735	0.27637
2351.01871	0.27575
2349.09006	0.27316
2347.16142	0.26957
2345.23277	0.26555
2343.30413	0.26127
2341.37548	0.25667
2339.44684	0.25189
2337.51819	0.24778
2335.58955	0.24581
2333.66090	0.24724
2331.73226	0.25234
2329.80361	0.26009
2327.87496	0.26868
2325.94632	0.27613
2324.01767	0.28085
2322.08903	0.28209
2320.16038	0.28000
2318.23174	0.27536
2316.30309	0.26936
2314.37445	0.26336
2312.44580	0.25872
2310.51716	0.25646
2308.58851	0.25683
2306.65987	0.25925
2304.73122	0.26255
2302.80257	0.26546
2300.87393	0.26705
2298.94528	0.26695
2297.01664	0.26524
2295.08799	0.26221
2293.15935	0.25822
2291.23070	0.25391
2289.30206	0.25036
2287.37341	0.24876
2285.44477	0.24988
2283.51612	0.25366
2281.58748	0.25905
2279.65883	0.26448
2277.73018	0.26866
2275.80154	0.27117
2273.87289	0.27226
2271.94425	0.27213
2270.01560	0.27039
2268.08696	0.26610
2266.15831	0.25854
2264.22967	0.24827
2262.30102	0.23762
2260.37238	0.22990
2258.44373	0.22745
2256.51509	0.23050
2254.58644	0.23680
2252.65779	0.24196
2250.72915	0.24132
2248.80050	0.23280
2246.87186	0.21829
2244.94321	0.20247
2243.01457	0.19066
2241.08592	0.18740
2239.15728	0.19424
2237.22863	0.20768
2235.29999	0.22082
2233.37134	0.22761
2231.44270	0.22488
2229.51405	0.21208
2227.58541	0.19195
2225.65676	0.17120
2223.72811	0.15778
2221.79947	0.15696
2219.87082	0.17010
2217.94218	0.19522
2216.01353	0.22641
2214.08489	0.25370
2212.15624	0.26748
2210.22760	0.26442
2208.29895	0.24803
2206.37031	0.22445
2204.44166	0.19875
2202.51302	0.17452
2200.58437	0.15438
2198.65572	0.13956
2196.72708	0.13154
2194.79843	0.13416
2192.86979	0.14991
2190.94114	0.17381
2189.01250	0.19380
2187.08385	0.19845
2185.15521	0.18412
2183.22656	0.15657
2181.29792	0.12807
2179.36927	0.11119
2177.44063	0.11013
2175.51198	0.11702
2173.58333	0.11881
2171.65469	0.10668
2169.72604	0.08008
2167.79740	0.04758
2165.86875	0.02414
2163.94011	0.02263
2162.01146	0.04488
2160.08282	0.08167
2158.15417	0.12041
2156.22553	0.14939
2154.29688	0.15865
2152.36824	0.14513
2150.43959	0.11654
2148.51094	0.08609
2146.58230	0.06425
2144.65365	0.05640
2142.72501	0.06389
2140.79636	0.08300
2138.86772	0.10572
2136.93907	0.12536
2135.01043	0.13987
2133.08178	0.15009
2131.15314	0.15753
2129.22449	0.16416
2127.29585	0.17180
2125.36720	0.18067
2123.43856	0.18955
2121.50991	0.19677
2119.58126	0.20012
2117.65262	0.19719
2115.72397	0.18755
2113.79533	0.17369
2111.86668	0.15996
2109.93804	0.15074
2108.00939	0.14899
2106.08075	0.15523
2104.15210	0.16672
2102.22346	0.17854
2100.29481	0.18619
2098.36617	0.18775
2096.43752	0.18466
2094.50887	0.18077
2092.58023	0.18041
2090.65158	0.18615
2088.72294	0.19719
2086.79429	0.20964
2084.86565	0.21838
2082.93700	0.21955
2081.00836	0.21206
2079.07971	0.19737
2077.15107	0.17852
2075.22242	0.15933
2073.29378	0.14361
2071.36513	0.13441
2069.43648	0.13352
2067.50784	0.14129
2065.57919	0.15619
2063.65055	0.17455
2061.72190	0.19172
2059.79326	0.20411
2057.86461	0.21038
2055.93597	0.21125
2054.00732	0.20863
2052.07868	0.20464
2050.15003	0.20026
2048.22139	0.19474
2046.29274	0.18661
2044.36409	0.17563
2042.43545	0.16316
2040.50680	0.15093
2038.57816	0.13957
2036.64951	0.12799
2034.72087	0.11330
2032.79222	0.09216
2030.86358	0.06396
2028.93493	0.03325
2027.00629	0.00888
2025.07764	-0.00000
2023.14900	0.01161
2021.22035	0.04386
2019.29170	0.09118
2017.36306	0.14468
2015.43441	0.19502
2013.50577	0.23429
2011.57712	0.25662
2009.64848	0.25847
2007.71983	0.23949
2005.79119	0.20395
2003.86254	0.16137
2001.93390	0.12433
2000.00525	0.10361
1998.07661	0.10365
1996.14796	0.12126
1994.21932	0.14782
1992.29067	0.17311
1990.36202	0.18896
1988.43338	0.19174
1986.50473	0.18295
1984.57609	0.16760
1982.64744	0.15175
1980.71880	0.14093
1978.79015	0.13914
1976.86151	0.14739
1974.93286	0.16254
1973.00422	0.17842
1971.07557	0.18892
1969.14693	0.19065
1967.21828	0.18358
1965.28963	0.17026
1963.36099	0.15444
1961.43234	0.13948
1959.50370	0.12766
1957.57505	0.12080
1955.64641	0.12097
1953.71776	0.13011
1951.78912	0.14827
1949.86047	0.17211
1947.93183	0.19509
1946.00318	0.20993
1944.07454	0.21172
1942.14589	0.20030
1940.21724	0.18043
1938.28860	0.15983
1936.35995	0.14570
1934.43131	0.14143
1932.50266	0.14557
1930.57402	0.15349
1928.64537	0.16023
1926.71673	0.16312
1924.78808	0.16292
1922.85944	0.16306
1920.93079	0.16701
1919.00215	0.17573
1917.07350	0.18692
1915.14485	0.19638
1913.21621	0.20020
1911.28756	0.19664
1909.35892	0.18684
1907.43027	0.17418
1905.50163	0.16250
1903.57298	0.15446
1901.64434	0.15102
1899.71569	0.15179
1897.78705	0.15560
1895.85840	0.16110
1893.92976	0.16701
1892.00111	0.17237
1890.07246	0.17657
1888.14382	0.17942
1886.21517	0.18110
1884.28653	0.18201
1882.35788	0.18250
1880.42924	0.18288
1878.50059	0.18329
1876.57195	0.18377
1874.64330	0.18420
1872.71466	0.18449
1870.78601	0.18460
1868.85737	0.18447
1866.92872	0.18403
1865.00008	0.18326
1863.07143	0.18228
1861.14278	0.18119
1859.21414	0.18008
1857.28549	0.17912
1855.35685	0.17854
1853.42820	0.17860
1851.49956	0.17945
1849.57091	0.18112
1847.64227	0.18347
1845.71362	0.18612
1843.78498	0.18846
1841.85633	0.18982
1839.92769	0.18958
1837.99904	0.18760
1836.07039	0.18439
1834.14175	0.18112
1832.21310	0.17911
1830.28446	0.17924
1828.35581	0.18155
1826.42717	0.18521
1824.49852	0.18901
1822.56988	0.19193
1820.64123	0.19360
1818.71259	0.19429
1816.78394	0.19452
1814.85530	0.19469
1812.92665	0.19479
1810.99800	0.19469
1809.06936	0.19434
1807.14071	0.19407
1805.21207	0.19452
1803.28342	0.19637
1801.35478	0.19983
1799.42613	0.20444
1797.49749	0.20923
1795.56884	0.21311
1793.64020	0.21532
1791.71155	0.21575
1789.78291	0.21496
1787.85426	0.21388
1785.92561	0.21334
1783.99697	0.21374
1782.06832	0.21504
1780.13968	0.21693
1778.21103	0.21900
1776.28239	0.22106
1774.35374	0.22321
1772.42510	0.22585
1770.49645	0.22944
1768.56781	0.23428
1766.63916	0.24033
1764.71052	0.24719
1762.78187	0.25414
1760.85322	0.26047
1758.92458	0.26578
1756.99593	0.27024
1755.06729	0.27448
1753.13864	0.27938
1751.21000	0.28569
1749.28135	0.29372
1747.35271	0.30327
1745.42406	0.31374
1743.49542	0.32450
1741.56677	0.33497
1739.63813	0.34475
1737.70948	0.35348
1735.78084	0.36090
1733.85219	0.36686
1731.92354	0.37151
1729.99490	0.37540
1728.06625	0.37947
1726.13761	0.38481
1724.20896	0.39218
1722.28032	0.40179
1720.35167	0.41329
1718.42303	0.42591
1716.49438	0.43881
1714.56574	0.45154
1712.63709	0.46426
1710.70845	0.47756
1708.77980	0.49223
1706.85115	0.50885
1704.92251	0.52765
1702.99386	0.54843
1701.06522	0.57070
1699.13657	0.59398
1697.20793	0.61804
1695.27928	0.64296
1693.35064	0.66900
1691.42199	0.69632
1689.49335	0.72485
1687.56470	0.75418
1685.63606	0.78374
1683.70741	0.81301
1681.77876	0.84173
1679.85012	0.86997
1677.92147	0.89793
1675.99283	0.92570
1674.06418	0.95315
1672.13554	0.97993
1670.20689	1.00566
1668.27825	1.03015
1666.34960	1.05351
1664.42096	1.07615
1662.49231	1.09847
1660.56367	1.12056
1658.63502	1.14201
1656.70637	1.16195
1654.77773	1.17918
1652.84908	1.19262
1650.92044	1.20175
1648.99179	1.20690
1647.06315	1.20912
1645.13450	1.20978
1643.20586	1.21009
1641.27721	1.21059
1639.34857	1.21095
1637.41992	1.21018
1635.49128	1.20715
1633.56263	1.20112
1631.63399	1.19202
1629.70534	1.18045
1627.77669	1.16741
1625.84805	1.15396
1623.91940	1.14096
1621.99076	1.12889
1620.06211	1.11798
1618.13347	1.10828
1616.20482	1.09966
1614.27618	1.09196
1612.34753	1.08498
1610.41889	1.07856
1608.49024	1.07257
1606.56160	1.06692
1604.63295	1.06152
1602.70430	1.05612
1600.77566	1.05035
1598.84701	1.04378
1596.91837	1.03614
1594.98972	1.02742
1593.06108	1.01790
1591.13243	1.00799
1589.20379	0.99802
1587.27514	0.98813
1585.34650	0.97820
1583.41785	0.96799
1581.48921	0.95731
1579.56056	0.94617
1577.63191	0.93476
1575.70327	0.92334
1573.77462	0.91212
1571.84598	0.90130
1569.91733	0.89103
1567.98869	0.88142
1566.06004	0.87247
1564.13140	0.86395
1562.20275	0.85537
1560.27411	0.84599
1558.34546	0.83508
1556.41682	0.82226
1554.48817	0.80777
1552.55952	0.79238
1550.63088	0.77708
1548.70223	0.76261
1546.77359	0.74904
1544.84494	0.73572
1542.91630	0.72163
1540.98765	0.70595
1539.05901	0.68863
1537.13036	0.67061
1535.20172	0.65354
1533.27307	0.63915
1531.34443	0.62860
1529.41578	0.62212
1527.48713	0.61883
1525.55849	0.61716
1523.62984	0.61526
1521.70120	0.61159
1519.77255	0.60528
1517.84391	0.59622
1515.91526	0.58487
1513.98662	0.57196
1512.05797	0.55805
1510.12933	0.54342
1508.20068	0.52814
1506.27204	0.51231
1504.34339	0.49633
1502.41475	0.48090
1500.48610	0.46678
1498.55745	0.45447
1496.62881	0.44407
1494.70016	0.43531
1492.77152	0.42781
1490.84287	0.42122
1488.91423	0.41538
1486.98558	0.41036
1485.05694	0.40643
1483.12829	0.40403
1481.19965	0.40377
1479.27100	0.40642
1477.34236	0.41262
1475.41371	0.42256
1473.48506	0.43571
1471.55642	0.45082
1469.62777	0.46627
1467.69913	0.48056
1465.77048	0.49266
1463.84184	0.50220
1461.91319	0.50935
1459.98455	0.51448
1458.05590	0.51776
1456.12726	0.51907
1454.19861	0.51823
1452.26997	0.51526
1450.34132	0.51046
1448.41267	0.50450
1446.48403	0.49837
1444.55538	0.49312
1442.62674	0.48962
1440.69809	0.48847
1438.76945	0.49000
1436.84080	0.49429
1434.91216	0.50121
1432.98351	0.51047
1431.05487	0.52170
1429.12622	0.53452
1427.19758	0.54850
1425.26893	0.56327
1423.34028	0.57846
1421.41164	0.59376
1419.48299	0.60889
1417.55435	0.62356
1415.62570	0.63752
1413.69706	0.65053
1411.76841	0.66235
1409.83977	0.67277
1407.91112	0.68150
1405.98248	0.68830
1404.05383	0.69310
1402.12519	0.69600
1400.19654	0.69723
1398.26789	0.69711
1396.33925	0.69591
1394.41060	0.69381
1392.48196	0.69086
1390.55331	0.68716
1388.62467	0.68289
1386.69602	0.67835
1384.76738	0.67381
1382.83873	0.66945
1380.91009	0.66535
1378.98144	0.66147
1377.05280	0.65774
1375.12415	0.65410
1373.19551	0.65051
1371.26686	0.64684
1369.33821	0.64281
1367.40957	0.63804
1365.48092	0.63214
1363.55228	0.62490
1361.62363	0.61638
1359.69499	0.60701
1357.76634	0.59746
1355.83770	0.58842
1353.90905	0.58036
1351.98041	0.57341
1350.05176	0.56733
1348.12312	0.56168
1346.19447	0.55593
1344.26582	0.54967
1342.33718	0.54277
1340.40853	0.53533
1338.47989	0.52760
1336.55124	0.51992
1334.62260	0.51267
1332.69395	0.50615
1330.76531	0.50054
1328.83666	0.49587
1326.90802	0.49201
1324.97937	0.48872
1323.05073	0.48572
1321.12208	0.48282
1319.19343	0.48003
1317.26479	0.47757
1315.33614	0.47572
1313.40750	0.47468
1311.47885	0.47435
1309.55021	0.47436
1307.62156	0.47422
1305.69292	0.47353
1303.76427	0.47214
1301.83563	0.47026
1299.90698	0.46836
1297.97834	0.46693
1296.04969	0.46638
1294.12104	0.46690
1292.19240	0.46854
1290.26375	0.47111
1288.33511	0.47424
1286.40646	0.47747
1284.47782	0.48026
1282.54917	0.48223
1280.62053	0.48332
1278.69188	0.48389
1276.76324	0.48459
1274.83459	0.48609
1272.90595	0.48877
1270.97730	0.49255
1269.04866	0.49693
1267.12001	0.50123
1265.19136	0.50485
1263.26272	0.50745
1261.33407	0.50899
1259.40543	0.50962
1257.47678	0.50950
1255.54814	0.50876
1253.61949	0.50753
1251.69085	0.50600
1249.76220	0.50445
1247.83356	0.50319
1245.90491	0.50246
1243.97627	0.50229
1242.04762	0.50244
1240.11897	0.50259
1238.19033	0.50251
1236.26168	0.50211
1234.33304	0.50146
1232.40439	0.50074
1230.47575	0.50010
1228.54710	0.49950
1226.61846	0.49878
1224.68981	0.49768
1222.76117	0.49604
1220.83252	0.49380
1218.90388	0.49099
1216.97523	0.48770
1215.04658	0.48418
1213.11794	0.48071
1211.18929	0.47753
1209.26065	0.47475
1207.33200	0.47235
1205.40336	0.47025
1203.47471	0.46844
1201.54607	0.46707
1199.61742	0.46657
1197.68878	0.46753
1195.76013	0.47058
1193.83149	0.47625
1191.90284	0.48481
1189.97419	0.49619
1188.04555	0.50992
1186.11690	0.52536
1184.18826	0.54196
1182.25961	0.55946
1180.33097	0.57806
1178.40232	0.59832
1176.47368	0.62090
1174.54503	0.64603
1172.61639	0.67321
1170.68774	0.70141
1168.75910	0.72966
1166.83045	0.75760
1164.90180	0.78554
1162.97316	0.81426
1161.04451	0.84456
1159.11587	0.87673
1157.18722	0.91022
1155.25858	0.94379
1153.32993	0.97625
1151.40129	1.00724
1149.47264	1.03737
1147.54400	1.06774
1145.61535	1.09932
1143.68671	1.13244
1141.75806	1.16664
1139.82942	1.20113
1137.90077	1.23562
1135.97212	1.27069
1134.04348	1.30763
1132.11483	1.34761
1130.18619	1.39077
1128.25754	1.43584
1126.32890	1.48052
1124.40025	1.52246
1122.47161	1.56019
1120.54296	1.59340
1118.61432	1.62262
1116.68567	1.64896
1114.75703	1.67354
1112.82838	1.69718
1110.89973	1.72009
1108.97109	1.74229
1107.04244	1.76386
1105.11380	1.78496
1103.18515	1.80551
1101.25651	1.82526
1099.32786	1.84404
1097.39922	1.86171
1095.47057	1.87800
1093.54193	1.89251
1091.61328	1.90507
1089.68464	1.91565
1087.75599	1.92404
1085.82734	1.92977
1083.89870	1.93234
1081.97005	1.93130
1080.04141	1.92613
1078.11276	1.91630
1076.18412	1.90147
1074.25547	1.88163
1072.32683	1.85699
1070.39818	1.82782
1068.46954	1.79467
1066.54089	1.75849
1064.61225	1.72050
1062.68360	1.68169
1060.75495	1.64248
1058.82631	1.60273
1056.89766	1.56196
1054.96902	1.51966
1053.04037	1.47583
1051.11173	1.43127
1049.18308	1.38709
1047.25444	1.34409
1045.32579	1.30253
1043.39715	1.26250
1041.46850	1.22423
1039.53986	1.18820
1037.61121	1.15493
1035.68256	1.12463
1033.75392	1.09696
1031.82527	1.07111
1029.89663	1.04634
1027.96798	1.02241
1026.03934	0.99973
1024.11069	0.97884
1022.18205	0.95965
1020.25340	0.94145
1018.32476	0.92353
1016.39611	0.90575
1014.46747	0.88864
1012.53882	0.87321
1010.61018	0.86066
1008.68153	0.85182
1006.75288	0.84677
1004.82424	0.84507
1002.89559	0.84645
1000.96695	0.85089
999.03830	0.85815
997.10966	0.86740
995.18101	0.87740
993.25237	0.88674
991.32372	0.89392
989.39508	0.89743
987.46643	0.89616
985.53779	0.88958
983.60914	0.87770
981.68049	0.86097
979.75185	0.84023
977.82320	0.81669
975.89456	0.79142
973.96591	0.76494
972.03727	0.73735
970.10862	0.70862
968.17998	0.67890
966.25133	0.64861
964.32269	0.61817
962.39404	0.58806
960.46540	0.55896
958.53675	0.53182
956.60810	0.50776
954.67946	0.48778
952.75081	0.47263
950.82217	0.46250
948.89352	0.45644
946.96488	0.45227
945.03623	0.44738
943.10759	0.43987
941.17894	0.42925
939.25030	0.41654
937.32165	0.40378
935.39301	0.39328
933.46436	0.38642
931.53571	0.38295
929.60707	0.38140
927.67842	0.38023
925.74978	0.37867
923.82113	0.37658
921.89249	0.37407
919.96384	0.37122
918.03520	0.36797
916.10655	0.36407
914.17791	0.35958
912.24926	0.35540
910.32062	0.35289
908.39197	0.35301
906.46333	0.35598
904.53468	0.36129
902.60603	0.36789
900.67739	0.37463
898.74874	0.38082
896.82010	0.38640
894.89145	0.39153
892.96281	0.39638
891.03416	0.40134
889.10552	0.40699
887.17687	0.41391
885.24823	0.42236
883.31958	0.43214
881.39094	0.44254
879.46229	0.45255
877.53364	0.46115
875.60500	0.46801
873.67635	0.47375
871.74771	0.47935
869.81906	0.48505
867.89042	0.49021
865.96177	0.49393
864.03313	0.49542
862.10448	0.49426
860.17584	0.49093
858.24719	0.48707
856.31855	0.48423
854.38990	0.48285
852.46125	0.48245
850.53261	0.48236
848.60396	0.48187
846.67532	0.48025
844.74667	0.47701
842.81803	0.47200
840.88938	0.46544
838.96074	0.45789
837.03209	0.44998
835.10345	0.44192
833.17480	0.43387
831.24616	0.42615
829.31751	0.41881
827.38886	0.41157
825.46022	0.40465
823.53157	0.39915
821.60293	0.39589
819.67428	0.39481
817.74564	0.39555
815.81699	0.39779
813.88835	0.40068
811.95970	0.40279
810.03106	0.40322
808.10241	0.40200
806.17377	0.39959
804.24512	0.39650
802.31647	0.39336
800.38783	0.39089
798.45918	0.38967
796.53054	0.39007
794.60189	0.39229
792.67325	0.39622
790.74460	0.40123
788.81596	0.40621
786.88731	0.40997
784.95867	0.41167
783.03002	0.41106
781.10138	0.40814
779.17273	0.40307
777.24409	0.39642
775.31544	0.38923
773.38679	0.38302
771.45815	0.37965
769.52950	0.38100
767.60086	0.38778
765.67221	0.39859
763.74357	0.41034
761.81492	0.41943
759.88628	0.42315
757.95763	0.42069
756.02899	0.41368
754.10034	0.40541
752.17170	0.39918
750.24305	0.39722
748.31440	0.40020
746.38576	0.40695
744.45711	0.41490
742.52847	0.42148
740.59982	0.42523
738.67118	0.42604
736.74253	0.42521
734.81389	0.42544
732.88524	0.42957
730.95660	0.43844
729.02795	0.45015
727.09931	0.46149
725.17066	0.46946
723.24201	0.47212
721.31337	0.46950
719.38472	0.46371
717.45608	0.45783
715.52743	0.45404
713.59879	0.45305
711.67014	0.45453
709.74150	0.45765
707.81285	0.46137
705.88421	0.46492
703.95556	0.46807
702.02692	0.47098
700.09827	0.47373
698.16962	0.47608
696.24098	0.47757
694.31233	0.47793
692.38369	0.47745
690.45504	0.47693
688.52640	0.47743
686.59775	0.47969
684.66911	0.48360
682.74046	0.48819
680.81182	0.49242
678.88317	0.49608
676.95453	0.49977
675.02588	0.50411
673.09723	0.50920
671.16859	0.51434
669.23994	0.51822
667.31130	0.51962
665.38265	0.51868
663.45401	0.51701
661.52536	0.51645
659.59672	0.51790
657.66807	0.52099
655.73943	0.52460
653.81078	0.52755
651.88214	0.52935
649.95349	0.53063
648.02485	0.53287
646.09620	0.53731
644.16755	0.54430
642.23891	0.55311
640.31026	0.56246
638.38162	0.57112
636.45297	0.57767
634.52433	0.57970
632.59568	0.57381
630.66704	0.55714
628.73839	0.52902
626.80975	0.49211
624.88110	0.45293
622.95246	0.42069
621.02381	0.40410
619.09516	0.40732
617.16652	0.42816
615.23787	0.45989
613.30923	0.49447
611.38058	0.52534
609.45194	0.54901
607.52329	0.56522
605.59465	0.57612
603.66600	0.58463
601.73736	0.59298
599.80871	0.60240
597.88007	0.61355
595.95142	0.62615
594.02277	0.63836
592.09413	0.64729
590.16548	0.65065
588.23684	0.64813
586.30819	0.64161
584.37955	0.63473
582.45090	0.63168
580.52226	0.63556
578.59361	0.64718
576.66497	0.66485
574.73632	0.68508
572.80768	0.70366
570.87903	0.71680
568.95038	0.72214
567.02174	0.71937
565.09309	0.71077
563.16445	0.70100
561.23580	0.69573
559.30716	0.69973
557.37851	0.71529
555.44987	0.74135
553.52122	0.77380
551.59258	0.80691
549.66393	0.83541
547.73529	0.85618
545.80664	0.86857
543.87800	0.87381
541.94935	0.87401
540.02070	0.87132
538.09206	0.86753
536.16341	0.86380
534.23477	0.86057
532.30612	0.85752
530.37748	0.85349
528.44883	0.84652
526.52019	0.83450
524.59154	0.81634
522.66290	0.79283
520.73425	0.76623
518.80561	0.73938
516.87696	0.71467
514.94831	0.69312
513.01967	0.67403
511.09102	0.65552
509.16238	0.63582
507.23373	0.61424
505.30509	0.59108
503.37644	0.56715
501.44780	0.54339
499.51915	0.52065
497.59051	0.49969
495.66186	0.48140
493.73322	0.46686
491.80457	0.45701
489.87592	0.45197
487.94728	0.45062
486.01863	0.45091
484.08999	0.45085
482.16134	0.44950
480.23270	0.44722
478.30405	0.44500
476.37541	0.44360
474.44676	0.44304
472.51812	0.44255
470.58947	0.44109
468.66083	0.43797
466.73218	0.43347
464.80353	0.42859
462.87489	0.42419
460.94624	0.42046
459.01760	0.41693
457.08895	0.41287
455.16031	0.40775
453.23166	0.40145
451.30302	0.39431
449.37437	0.38696
447.44573	0.38008
445.51708	0.37416
443.58844	0.36920
441.65979	0.36475
439.73114	0.36014
437.80250	0.35493
435.87385	0.34925
433.94521	0.34401
432.01656	0.34086
430.08792	0.34136
428.15927	0.34587
426.23063	0.35268
424.30198	0.35850
422.37334	0.35980
420.44469	0.35421
418.51605	0.34145
416.58740	0.32349
414.65876	0.30365
412.73011	0.28520
410.80146	0.27021
408.87282	0.25938
406.94417	0.25221
405.01553	0.24732
403.08688	0.24278
401.15824	0.23658
399.22959	0.22694
397.30095	0.21282
395.37230	0.19457
393.44366	0.17419
391.51501	0.15463
389.58637	0.13877
387.65772	0.12845
385.72907	0.12409
383.80043	0.12469
381.87178	0.12850
379.94314	0.13377
378.01449	0.13909
376.08585	0.14323
374.15720	0.14489
372.22856	0.14279
370.29991	0.13592
368.37127	0.12436
366.44262	0.10997
364.51398	0.09621
362.58533	0.08676
360.65668	0.08397
358.72804	0.08788
356.79939	0.09625
354.87075	0.10530
352.94210	0.11129
351.01346	0.11215
349.08481	0.10803
347.15617	0.10073
345.22752	0.09278
343.29888	0.08681
341.37023	0.08483
339.44159	0.08745
337.51294	0.09363
335.58429	0.10081
333.65565	0.10554
331.72700	0.10461
329.79836	0.09638
327.86971	0.08166
325.94107	0.06353
324.01242	0.04624
322.08378	0.03362
320.15513	0.02746
318.22649	0.02687
316.29784	0.02931
314.36920	0.03277
312.44055	0.03586
310.51190	0.03946
308.58326	0.04565
306.65461	0.05605
304.72597	0.06984
302.79732	0.08340
300.86868	0.09184
298.94003	0.09165
297.01139	0.08261
295.08274	0.06849
293.15410	0.05594
291.22545	0.05162
289.29681	0.05907
287.36816	0.07705
285.43952	0.10036
283.51087	0.12189
281.58222	0.13519
279.65358	0.13665
277.72493	0.12632
275.79629	0.10710
273.86764	0.08322
271.93900	0.05930
270.01035	0.04015
268.08171	0.03053
266.15306	0.03421
264.22442	0.05276
262.29577	0.08460
260.36713	0.12460
258.43848	0.16494
256.50983	0.19746
254.58119	0.21665
252.65254	0.22148
250.72390	0.21506
248.79525	0.20266
246.86661	0.18938
244.93796	0.17868
243.00932	0.17225
241.08067	0.17053
239.15203	0.17374
237.22338	0.18260
235.29474	0.19811
233.36609	0.22051
231.43744	0.24851
229.50880	0.27919
227.58015	0.30856
225.65151	0.33247
223.72286	0.34786
221.79422	0.35388
219.86557	0.35203
217.93693	0.34546
216.00828	0.33835
214.07964	0.33502
212.15099	0.33817
210.22235	0.34768
208.29370	0.36113
206.36505	0.37517
204.43641	0.38680
202.50776	0.39428
200.57912	0.39810
198.65047	0.40099
196.72183	0.40616
194.79318	0.41550
192.86454	0.42918
190.93589	0.44626
189.00725	0.46480
187.07860	0.48145
185.14996	0.49152
183.22131	0.49080
181.29267	0.47817
179.36402	0.45704
177.43537	0.43501
175.50673	0.42276
173.57808	0.43228
171.64944	0.47406
169.72079	0.55353
167.79215	0.66889
165.86350	0.81069
163.93486	0.96223
162.00621	1.09773
160.07757	1.20000
158.14892	1.26265
156.22028	1.28987
154.29163	1.28987
152.36298	1.28987
150.43434	1.28987
148.50569	1.28987
