4497.60101	0.03693
4495.67236	0.03693
4493.74372	0.03693
4491.81507	0.03693
4489.88643	0.03693
4487.95778	0.03676
4486.02914	0.03618
4484.10049	0.03504
4482.17185	0.03338
4480.24320	0.03145
4478.31455	0.02966
4476.38591	0.02842
4474.45726	0.02783
4472.52862	0.02766
4470.59997	0.02772
4468.67133	0.02807
4466.74268	0.02895
4464.81404	0.03067
4462.88539	0.03327
4460.95675	0.03612
4459.02810	0.03806
4457.09946	0.03804
4455.17081	0.03588
4453.24216	0.03240
4451.31352	0.02904
4449.38487	0.02710
4447.45623	0.02713
4445.52758	0.02856
4443.59894	0.03009
4441.67029	0.03046
4439.74165	0.02917
4437.81300	0.02668
4435.88436	0.02399
4433.95571	0.02215
4432.02707	0.02186
4430.09842	0.02322
4428.16978	0.02585
4426.24113	0.02896
4424.31248	0.03164
4422.38384	0.03321
4420.45519	0.03347
4418.52655	0.03261
4416.59790	0.03108
4414.66926	0.02956
4412.74061	0.02877
4410.81197	0.02906
4408.88332	0.03024
4406.95468	0.03172
4405.02603	0.03289
4403.09739	0.03328
4401.16874	0.03261
4399.24009	0.03109
4397.31145	0.02938
4395.38280	0.02829
4393.45416	0.02826
4391.52551	0.02915
4389.59687	0.03050
4387.66822	0.03181
4385.73958	0.03270
4383.81093	0.03299
4381.88229	0.03276
4379.95364	0.03228
4378.02500	0.03178
4376.09635	0.03136
4374.16770	0.03108
4372.23906	0.03102
4370.31041	0.03125
4368.38177	0.03178
4366.45312	0.03251
4364.52448	0.03329
4362.59583	0.03392
4360.66719	0.03425
4358.73854	0.03419
4356.80990	0.03381
4354.88125	0.03335
4352.95261	0.03314
4351.02396	0.03341
4349.09531	0.03418
4347.16667	0.03522
4345.23802	0.03615
4343.30938	0.03668
4341.38073	0.03678
4339.45209	0.03659
4337.52344	0.03630
4335.59480	0.03616
4333.66615	0.03631
4331.73751	0.03675
4329.80886	0.03743
4327.88022	0.03828
4325.95157	0.03922
4324.02292	0.04002
4322.09428	0.04040
4320.16563	0.04020
4318.23699	0.03945
4316.30834	0.03834
4314.37970	0.03719
4312.45105	0.03622
4310.52241	0.03550
4308.59376	0.03499
4306.66512	0.03465
4304.73647	0.03448
4302.80783	0.03448
4300.87918	0.03462
4298.95054	0.03468
4297.02189	0.03429
4295.09324	0.03315
4293.16460	0.03138
4291.23595	0.02944
4289.30731	0.02787
4287.37866	0.02705
4285.45002	0.02703
4283.52137	0.02751
4281.59273	0.02802
4279.66408	0.02827
4277.73544	0.02824
4275.80679	0.02806
4273.87815	0.02785
4271.94950	0.02771
4270.02085	0.02768
4268.09221	0.02780
4266.16356	0.02813
4264.23492	0.02879
4262.30627	0.02973
4260.37763	0.03068
4258.44898	0.03136
4256.52034	0.03171
4254.59169	0.03184
4252.66305	0.03202
4250.73440	0.03245
4248.80576	0.03309
4246.87711	0.03363
4244.94846	0.03371
4243.01982	0.03318
4241.09117	0.03219
4239.16253	0.03113
4237.23388	0.03042
4235.30524	0.03031
4233.37659	0.03072
4231.44795	0.03138
4229.51930	0.03203
4227.59066	0.03251
4225.66201	0.03274
4223.73337	0.03277
4221.80472	0.03275
4219.87607	0.03275
4217.94743	0.03268
4216.01878	0.03243
4214.09014	0.03198
4212.16149	0.03136
4210.23285	0.03065
4208.30420	0.03002
4206.37556	0.02970
4204.44691	0.02973
4202.51827	0.02995
4200.58962	0.03017
4198.66098	0.03024
4196.73233	0.03012
4194.80368	0.02980
4192.87504	0.02944
4190.94639	0.02933
4189.01775	0.02968
4187.08910	0.03058
4185.16046	0.03180
4183.23181	0.03288
4181.30317	0.03333
4179.37452	0.03283
4177.44588	0.03142
4175.51723	0.02960
4173.58859	0.02816
4171.65994	0.02773
4169.73130	0.02839
4167.80265	0.02966
4165.87400	0.03071
4163.94536	0.03074
4162.01671	0.02940
4160.08807	0.02705
4158.15942	0.02451
4156.23078	0.02259
4154.30213	0.02178
4152.37349	0.02218
4150.44484	0.02338
4148.51620	0.02476
4146.58755	0.02586
4144.65891	0.02660
4142.73026	0.02712
4140.80161	0.02755
4138.87297	0.02793
4136.94432	0.02832
4135.01568	0.02876
4133.08703	0.02919
4131.15839	0.02959
4129.22974	0.03006
4127.30110	0.03076
4125.37245	0.03169
4123.44381	0.03264
4121.51516	0.03334
4119.58652	0.03358
4117.65787	0.03323
4115.72922	0.03235
4113.80058	0.03125
4111.87193	0.03041
4109.94329	0.03008
4108.01464	0.03021
4106.08600	0.03044
4104.15735	0.03031
4102.22871	0.02954
4100.30006	0.02824
4098.37142	0.02684
4096.44277	0.02586
4094.51413	0.02559
4092.58548	0.02589
4090.65683	0.02633
4088.72819	0.02645
4086.79954	0.02616
4084.87090	0.02575
4082.94225	0.02570
4081.01361	0.02633
4079.08496	0.02759
4077.15632	0.02899
4075.22767	0.02995
4073.29903	0.03029
4071.37038	0.03028
4069.44174	0.03044
4067.51309	0.03107
4065.58444	0.03216
4063.65580	0.03342
4061.72715	0.03443
4059.79851	0.03494
4057.86986	0.03496
4055.94122	0.03468
4054.01257	0.03423
4052.08393	0.03368
4050.15528	0.03305
4048.22664	0.03242
4046.29799	0.03195
4044.36935	0.03176
4042.44070	0.03180
4040.51206	0.03181
4038.58341	0.03150
4036.65476	0.03081
4034.72612	0.02996
4032.79747	0.02933
4030.86883	0.02936
4028.94018	0.03042
4027.01154	0.03239
4025.08289	0.03468
4023.15425	0.03645
4021.22560	0.03709
4019.29696	0.03643
4017.36831	0.03481
4015.43967	0.03291
4013.51102	0.03140
4011.58237	0.03061
4009.65373	0.03044
4007.72508	0.03061
4005.79644	0.03089
4003.86779	0.03125
4001.93915	0.03173
4000.01050	0.03226
3998.08186	0.03269
3996.15321	0.03288
3994.22457	0.03278
3992.29592	0.03246
3990.36728	0.03207
3988.43863	0.03179
3986.50998	0.03169
3984.58134	0.03167
3982.65269	0.03161
3980.72405	0.03142
3978.79540	0.03107
3976.86676	0.03061
3974.93811	0.03015
3973.00947	0.02979
3971.08082	0.02962
3969.15218	0.02963
3967.22353	0.02970
3965.29489	0.02962
3963.36624	0.02923
3961.43759	0.02855
3959.50895	0.02778
3957.58030	0.02725
3955.65166	0.02723
3953.72301	0.02778
3951.79437	0.02875
3949.86572	0.02984
3947.93708	0.03077
3946.00843	0.03139
3944.07979	0.03164
3942.15114	0.03156
3940.22250	0.03118
3938.29385	0.03047
3936.36521	0.02939
3934.43656	0.02796
3932.50791	0.02628
3930.57927	0.02457
3928.65062	0.02306
3926.72198	0.02203
3924.79333	0.02173
3922.86469	0.02230
3920.93604	0.02366
3919.00740	0.02549
3917.07875	0.02730
3915.15011	0.02864
3913.22146	0.02925
3911.29282	0.02914
3909.36417	0.02857
3907.43552	0.02786
3905.50688	0.02731
3903.57823	0.02710
3901.64959	0.02730
3899.72094	0.02791
3897.79230	0.02889
3895.86365	0.03011
3893.93501	0.03136
3892.00636	0.03234
3890.07772	0.03277
3888.14907	0.03251
3886.22043	0.03156
3884.29178	0.03012
3882.36313	0.02848
3880.43449	0.02694
3878.50584	0.02574
3876.57720	0.02500
3874.64855	0.02467
3872.71991	0.02465
3870.79126	0.02482
3868.86262	0.02512
3866.93397	0.02558
3865.00533	0.02621
3863.07668	0.02696
3861.14804	0.02766
3859.21939	0.02810
3857.29074	0.02808
3855.36210	0.02751
3853.43345	0.02642
3851.50481	0.02499
3849.57616	0.02350
3847.64752	0.02223
3845.71887	0.02146
3843.79023	0.02139
3841.86158	0.02204
3839.93294	0.02324
3838.00429	0.02465
3836.07565	0.02588
3834.14700	0.02662
3832.21835	0.02674
3830.28971	0.02633
3828.36106	0.02558
3826.43242	0.02470
3824.50377	0.02392
3822.57513	0.02338
3820.64648	0.02317
3818.71784	0.02331
3816.78919	0.02373
3814.86055	0.02428
3812.93190	0.02479
3811.00326	0.02513
3809.07461	0.02532
3807.14597	0.02546
3805.21732	0.02569
3803.28867	0.02605
3801.36003	0.02642
3799.43138	0.02660
3797.50274	0.02642
3795.57409	0.02588
3793.64545	0.02514
3791.71680	0.02448
3789.78816	0.02409
3787.85951	0.02401
3785.93087	0.02409
3784.00222	0.02412
3782.07358	0.02393
3780.14493	0.02350
3778.21628	0.02296
3776.28764	0.02254
3774.35899	0.02241
3772.43035	0.02270
3770.50170	0.02341
3768.57306	0.02445
3766.64441	0.02561
3764.71577	0.02658
3762.78712	0.02705
3760.85848	0.02690
3758.92983	0.02618
3757.00119	0.02515
3755.07254	0.02418
3753.14389	0.02358
3751.21525	0.02344
3749.28660	0.02366
3747.35796	0.02400
3745.42931	0.02430
3743.50067	0.02450
3741.57202	0.02471
3739.64338	0.02514
3737.71473	0.02600
3735.78609	0.02738
3733.85744	0.02914
3731.92880	0.03091
3730.00015	0.03221
3728.07150	0.03268
3726.14286	0.03221
3724.21421	0.03104
3722.28557	0.02972
3720.35692	0.02887
3718.42828	0.02897
3716.49963	0.03017
3714.57099	0.03235
3712.64234	0.03522
3710.71370	0.03849
3708.78505	0.04189
3706.85641	0.04530
3704.92776	0.04865
3702.99911	0.05190
3701.07047	0.05505
3699.14182	0.05820
3697.21318	0.06153
3695.28453	0.06512
3693.35589	0.06894
3691.42724	0.07280
3689.49860	0.07641
3687.56995	0.07963
3685.64131	0.08254
3683.71266	0.08559
3681.78402	0.08932
3679.85537	0.09415
3677.92673	0.10014
3675.99808	0.10700
3674.06943	0.11430
3672.14079	0.12175
3670.21214	0.12930
3668.28350	0.13721
3666.35485	0.14589
3664.42621	0.15560
3662.49756	0.16631
3660.56892	0.17768
3658.64027	0.18927
3656.71163	0.20071
3654.78298	0.21185
3652.85434	0.22283
3650.92569	0.23401
3648.99704	0.24581
3647.06840	0.25841
3645.13975	0.27183
3643.21111	0.28593
3641.28246	0.30061
3639.35382	0.31577
3637.42517	0.33139
3635.49653	0.34745
3633.56788	0.36381
3631.63924	0.38020
3629.71059	0.39625
3627.78195	0.41172
3625.85330	0.42653
3623.92465	0.44081
3621.99601	0.45478
3620.06736	0.46877
3618.13872	0.48305
3616.21007	0.49780
3614.28143	0.51304
3612.35278	0.52866
3610.42414	0.54444
3608.49549	0.56003
3606.56685	0.57510
3604.63820	0.58949
3602.70956	0.60329
3600.78091	0.61690
3598.85226	0.63087
3596.92362	0.64570
3594.99497	0.66156
3593.06633	0.67824
3591.13768	0.69526
3589.20904	0.71211
3587.28039	0.72853
3585.35175	0.74461
3583.42310	0.76076
3581.49446	0.77742
3579.56581	0.79484
3577.63717	0.81296
3575.70852	0.83145
3573.77988	0.84984
3571.85123	0.86767
3569.92258	0.88472
3567.99394	0.90097
3566.06529	0.91666
3564.13665	0.93212
3562.20800	0.94766
3560.27936	0.96351
3558.35071	0.97972
3556.42207	0.99621
3554.49342	1.01278
3552.56478	1.02925
3550.63613	1.04550
3548.70749	1.06161
3546.77884	1.07772
3544.85019	1.09401
3542.92155	1.11059
3540.99290	1.12745
3539.06426	1.14442
3537.13561	1.16132
3535.20697	1.17798
3533.27832	1.19432
3531.34968	1.21032
3529.42103	1.22602
3527.49239	1.24141
3525.56374	1.25653
3523.63510	1.27146
3521.70645	1.28633
3519.77780	1.30137
3517.84916	1.31676
3515.92051	1.33264
3513.99187	1.34900
3512.06322	1.36565
3510.13458	1.38231
3508.20593	1.39868
3506.27729	1.41456
3504.34864	1.42990
3502.42000	1.44478
3500.49135	1.45931
3498.56271	1.47362
3496.63406	1.48780
3494.70541	1.50189
3492.77677	1.51593
3490.84812	1.52991
3488.91948	1.54379
3486.99083	1.55747
3485.06219	1.57079
3483.13354	1.58370
3481.20490	1.59627
3479.27625	1.60865
3477.34761	1.62107
3475.41896	1.63370
3473.49032	1.64665
3471.56167	1.65991
3469.63302	1.67343
3467.70438	1.68715
3465.77573	1.70095
3463.84709	1.71471
3461.91844	1.72825
3459.98980	1.74149
3458.06115	1.75443
3456.13251	1.76714
3454.20386	1.77966
3452.27522	1.79194
3450.34657	1.80380
3448.41793	1.81508
3446.48928	1.82567
3444.56064	1.83566
3442.63199	1.84525
3440.70334	1.85465
3438.77470	1.86401
3436.84605	1.87330
3434.91741	1.88242
3432.98876	1.89128
3431.06012	1.89985
3429.13147	1.90809
3427.20283	1.91593
3425.27418	1.92325
3423.34554	1.92992
3421.41689	1.93589
3419.48825	1.94126
3417.55960	1.94625
3415.63095	1.95119
3413.70231	1.95625
3411.77366	1.96145
3409.84502	1.96659
3407.91637	1.97145
3405.98773	1.97584
3404.05908	1.97971
3402.13044	1.98308
3400.20179	1.98604
3398.27315	1.98863
3396.34450	1.99088
3394.41586	1.99279
3392.48721	1.99442
3390.55856	1.99588
3388.62992	1.99726
3386.70127	1.99854
3384.77263	1.99954
3382.84398	2.00000
3380.91534	1.99966
3378.98669	1.99834
3377.05805	1.99608
3375.12940	1.99309
3373.20076	1.98974
3371.27211	1.98634
3369.34347	1.98310
3367.41482	1.98009
3365.48617	1.97720
3363.55753	1.97425
3361.62888	1.97107
3359.70024	1.96754
3357.77159	1.96365
3355.84295	1.95938
3353.91430	1.95476
3351.98566	1.94972
3350.05701	1.94417
3348.12837	1.93807
3346.19972	1.93144
3344.27108	1.92451
3342.34243	1.91758
3340.41378	1.91095
3338.48514	1.90475
3336.55649	1.89888
3334.62785	1.89309
3332.69920	1.88707
3330.77056	1.88061
3328.84191	1.87365
3326.91327	1.86629
3324.98462	1.85865
3323.05598	1.85084
3321.12733	1.84291
3319.19869	1.83495
3317.27004	1.82709
3315.34140	1.81951
3313.41275	1.81242
3311.48410	1.80595
3309.55546	1.80004
3307.62681	1.79448
3305.69817	1.78897
3303.76952	1.78320
3301.84088	1.77703
3299.91223	1.77054
3297.98359	1.76391
3296.05494	1.75735
3294.12630	1.75098
3292.19765	1.74477
3290.26901	1.73858
3288.34036	1.73231
3286.41171	1.72594
3284.48307	1.71953
3282.55442	1.71321
3280.62578	1.70702
3278.69713	1.70090
3276.76849	1.69476
3274.83984	1.68845
3272.91120	1.68185
3270.98255	1.67490
3269.05391	1.66762
3267.12526	1.66008
3265.19662	1.65238
3263.26797	1.64463
3261.33932	1.63701
3259.41068	1.62962
3257.48203	1.62252
3255.55339	1.61566
3253.62474	1.60893
3251.69610	1.60215
3249.76745	1.59512
3247.83881	1.58769
3245.91016	1.57985
3243.98152	1.57166
3242.05287	1.56330
3240.12423	1.55489
3238.19558	1.54647
3236.26693	1.53796
3234.33829	1.52922
3232.40964	1.52018
3230.48100	1.51085
3228.55235	1.50137
3226.62371	1.49184
3224.69506	1.48229
3222.76642	1.47265
3220.83777	1.46277
3218.90913	1.45260
3216.98048	1.44220
3215.05184	1.43169
3213.12319	1.42123
3211.19455	1.41087
3209.26590	1.40052
3207.33725	1.39002
3205.40861	1.37923
3203.47996	1.36806
3201.55132	1.35659
3199.62267	1.34495
3197.69403	1.33329
3195.76538	1.32170
3193.83674	1.31013
3191.90809	1.29849
3189.97945	1.28666
3188.05080	1.27461
3186.12216	1.26237
3184.19351	1.25009
3182.26486	1.23781
3180.33622	1.22554
3178.40757	1.21321
3176.47893	1.20072
3174.55028	1.18801
3172.62164	1.17508
3170.69299	1.16201
3168.76435	1.14890
3166.83570	1.13579
3164.90706	1.12271
3162.97841	1.10973
3161.04977	1.09692
3159.12112	1.08435
3157.19247	1.07210
3155.26383	1.06022
3153.33518	1.04870
3151.40654	1.03744
3149.47789	1.02634
3147.54925	1.01529
3145.62060	1.00428
3143.69196	0.99334
3141.76331	0.98264
3139.83467	0.97234
3137.90602	0.96250
3135.97738	0.95303
3134.04873	0.94370
3132.12008	0.93422
3130.19144	0.92428
3128.26279	0.91368
3126.33415	0.90243
3124.40550	0.89081
3122.47686	0.87922
3120.54821	0.86813
3118.61957	0.85791
3116.69092	0.84866
3114.76228	0.84019
3112.83363	0.83212
3110.90499	0.82404
3108.97634	0.81567
3107.04769	0.80690
3105.11905	0.79779
3103.19040	0.78845
3101.26176	0.77900
3099.33311	0.76950
3097.40447	0.76002
3095.47582	0.75063
3093.54718	0.74138
3091.61853	0.73233
3089.68989	0.72351
3087.76124	0.71498
3085.83260	0.70683
3083.90395	0.69914
3081.97531	0.69188
3080.04666	0.68492
3078.11801	0.67805
3076.18937	0.67105
3074.26072	0.66386
3072.33208	0.65658
3070.40343	0.64947
3068.47479	0.64277
3066.54614	0.63657
3064.61750	0.63079
3062.68885	0.62521
3060.76021	0.61962
3058.83156	0.61383
3056.90292	0.60775
3054.97427	0.60139
3053.04562	0.59476
3051.11698	0.58793
3049.18833	0.58100
3047.25969	0.57411
3045.33104	0.56746
3043.40240	0.56122
3041.47375	0.55548
3039.54511	0.55023
3037.61646	0.54534
3035.68782	0.54059
3033.75917	0.53578
3031.83053	0.53076
3029.90188	0.52548
3027.97323	0.52005
3026.04459	0.51460
3024.11594	0.50928
3022.18730	0.50421
3020.25865	0.49940
3018.33001	0.49478
3016.40136	0.49023
3014.47272	0.48564
3012.54407	0.48094
3010.61543	0.47615
3008.68678	0.47136
3006.75814	0.46666
3004.82949	0.46218
3002.90084	0.45799
3000.97220	0.45412
2999.04355	0.45049
2997.11491	0.44713
2995.18626	0.44415
2993.25762	0.44172
2991.32897	0.43994
2989.40033	0.43891
2987.47168	0.43866
2985.54304	0.43905
2983.61439	0.43992
2981.68575	0.44123
2979.75710	0.44307
2977.82845	0.44559
2975.89981	0.44896
2973.97116	0.45344
2972.04252	0.45947
2970.11387	0.46767
2968.18523	0.47874
2966.25658	0.49320
2964.32794	0.51092
2962.39929	0.53059
2960.47065	0.54964
2958.54200	0.56477
2956.61336	0.57312
2954.68471	0.57335
2952.75607	0.56638
2950.82742	0.55522
2948.89877	0.54397
2946.97013	0.53642
2945.04148	0.53492
2943.11284	0.54007
2941.18419	0.55123
2939.25555	0.56740
2937.32690	0.58799
2935.39826	0.61312
2933.46961	0.64387
2931.54097	0.68282
2929.61232	0.73456
2927.68368	0.80532
2925.75503	0.90012
2923.82638	1.01782
2921.89774	1.14705
2919.96909	1.26615
2918.04045	1.34853
2916.11180	1.37201
2914.18316	1.32830
2912.25451	1.22770
2910.32587	1.09536
2908.39722	0.96071
2906.46858	0.84658
2904.53993	0.76333
2902.61129	0.70929
2900.68264	0.67555
2898.75399	0.65200
2896.82535	0.63178
2894.89670	0.61214
2892.96806	0.59270
2891.03941	0.57366
2889.11077	0.55515
2887.18212	0.53752
2885.25348	0.52153
2883.32483	0.50815
2881.39619	0.49814
2879.46754	0.49156
2877.53890	0.48754
2875.61025	0.48445
2873.68160	0.48069
2871.75296	0.47556
2869.82431	0.46972
2867.89567	0.46469
2865.96702	0.46214
2864.03838	0.46429
2862.10973	0.47571
2860.18109	0.50425
2858.25244	0.55815
2856.32380	0.64025
2854.39515	0.74285
2852.46651	0.84642
2850.53786	0.92377
2848.60922	0.95001
2846.68057	0.91434
2844.75192	0.82605
2842.82328	0.70963
2840.89463	0.59314
2838.96599	0.49770
2837.03734	0.43219
2835.10870	0.39373
2833.18005	0.37276
2831.25141	0.35970
2829.32276	0.34906
2827.39412	0.33923
2825.46547	0.33026
2823.53683	0.32236
2821.60818	0.31554
2819.67953	0.30972
2817.75089	0.30467
2815.82224	0.30005
2813.89360	0.29562
2811.96495	0.29132
2810.03631	0.28720
2808.10766	0.28327
2806.17902	0.27951
2804.25037	0.27591
2802.32173	0.27247
2800.39308	0.26913
2798.46444	0.26581
2796.53579	0.26247
2794.60714	0.25918
2792.67850	0.25605
2790.74985	0.25316
2788.82121	0.25060
2786.89256	0.24844
2784.96392	0.24663
2783.03527	0.24505
2781.10663	0.24358
2779.17798	0.24213
2777.24934	0.24054
2775.32069	0.23862
2773.39205	0.23619
2771.46340	0.23330
2769.53475	0.23019
2767.60611	0.22727
2765.67746	0.22488
2763.74882	0.22317
2761.82017	0.22195
2759.89153	0.22084
2757.96288	0.21954
2756.03424	0.21796
2754.10559	0.21624
2752.17695	0.21472
2750.24830	0.21364
2748.31966	0.21304
2746.39101	0.21269
2744.46236	0.21224
2742.53372	0.21146
2740.60507	0.21023
2738.67643	0.20863
2736.74778	0.20687
2734.81914	0.20520
2732.89049	0.20382
2730.96185	0.20276
2729.03320	0.20189
2727.10456	0.20102
2725.17591	0.19999
2723.24727	0.19869
2721.31862	0.19712
2719.38998	0.19536
2717.46133	0.19356
2715.53268	0.19190
2713.60404	0.19053
2711.67539	0.18950
2709.74675	0.18877
2707.81810	0.18825
2705.88946	0.18774
2703.96081	0.18701
2702.03217	0.18596
2700.10352	0.18469
2698.17488	0.18336
2696.24623	0.18209
2694.31759	0.18093
2692.38894	0.17980
2690.46029	0.17864
2688.53165	0.17741
2686.60300	0.17616
2684.67436	0.17503
2682.74571	0.17408
2680.81707	0.17325
2678.88842	0.17244
2676.95978	0.17160
2675.03113	0.17074
2673.10249	0.16993
2671.17384	0.16924
2669.24520	0.16865
2667.31655	0.16808
2665.38790	0.16742
2663.45926	0.16662
2661.53061	0.16574
2659.60197	0.16487
2657.67332	0.16406
2655.74468	0.16330
2653.81603	0.16258
2651.88739	0.16191
2649.95874	0.16124
2648.03010	0.16058
2646.10145	0.15997
2644.17281	0.15936
2642.24416	0.15861
2640.31551	0.15760
2638.38687	0.15632
2636.45822	0.15484
2634.52958	0.15327
2632.60093	0.15175
2630.67229	0.15038
2628.74364	0.14920
2626.81500	0.14820
2624.88635	0.14725
2622.95771	0.14617
2621.02906	0.14478
2619.10042	0.14296
2617.17177	0.14071
2615.24312	0.13819
2613.31448	0.13579
2611.38583	0.13403
2609.45719	0.13325
2607.52854	0.13339
2605.59990	0.13404
2603.67125	0.13463
2601.74261	0.13463
2599.81396	0.13378
2597.88532	0.13231
2595.95667	0.13071
2594.02803	0.12944
2592.09938	0.12875
2590.17074	0.12862
2588.24209	0.12877
2586.31344	0.12888
2584.38480	0.12880
2582.45615	0.12848
2580.52751	0.12789
2578.59886	0.12696
2576.67022	0.12577
2574.74157	0.12454
2572.81293	0.12349
2570.88428	0.12286
2568.95564	0.12287
2567.02699	0.12359
2565.09835	0.12474
2563.16970	0.12589
2561.24105	0.12672
2559.31241	0.12702
2557.38376	0.12671
2555.45512	0.12585
2553.52647	0.12472
2551.59783	0.12360
2549.66918	0.12255
2547.74054	0.12151
2545.81189	0.12039
2543.88325	0.11907
2541.95460	0.11758
2540.02596	0.11616
2538.09731	0.11512
2536.16866	0.11460
2534.24002	0.11443
2532.31137	0.11434
2530.38273	0.11412
2528.45408	0.11383
2526.52544	0.11374
2524.59679	0.11420
2522.66815	0.11528
2520.73950	0.11660
2518.81086	0.11752
2516.88221	0.11753
2514.95357	0.11649
2513.02492	0.11471
2511.09627	0.11277
2509.16763	0.11136
2507.23898	0.11086
2505.31034	0.11127
2503.38169	0.11234
2501.45305	0.11373
2499.52440	0.11502
2497.59576	0.11573
2495.66711	0.11555
2493.73847	0.11448
2491.80982	0.11278
2489.88118	0.11088
2487.95253	0.10924
2486.02389	0.10825
2484.09524	0.10812
2482.16659	0.10886
2480.23795	0.11032
2478.30930	0.11221
2476.38066	0.11414
2474.45201	0.11573
2472.52337	0.11665
2470.59472	0.11673
2468.66608	0.11610
2466.73743	0.11509
2464.80879	0.11399
2462.88014	0.11290
2460.95150	0.11189
2459.02285	0.11112
2457.09420	0.11082
2455.16556	0.11109
2453.23691	0.11194
2451.30827	0.11312
2449.37962	0.11424
2447.45098	0.11497
2445.52233	0.11525
2443.59369	0.11528
2441.66504	0.11530
2439.73640	0.11547
2437.80775	0.11563
2435.87911	0.11554
2433.95046	0.11511
2432.02181	0.11447
2430.09317	0.11383
2428.16452	0.11342
2426.23588	0.11336
2424.30723	0.11356
2422.37859	0.11373
2420.44994	0.11379
2418.52130	0.11390
2416.59265	0.11423
2414.66401	0.11473
2412.73536	0.11531
2410.80672	0.11578
2408.87807	0.11589
2406.94942	0.11547
2405.02078	0.11473
2403.09213	0.11405
2401.16349	0.11364
2399.23484	0.11353
2397.30620	0.11366
2395.37755	0.11392
2393.44891	0.11422
2391.52026	0.11455
2389.59162	0.11499
2387.66297	0.11568
2385.73433	0.11666
2383.80568	0.11793
2381.87703	0.11936
2379.94839	0.12062
2378.01974	0.12116
2376.09110	0.12038
2374.16245	0.11789
2372.23381	0.11389
2370.30516	0.10925
2368.37652	0.10531
2366.44787	0.10336
2364.51923	0.10416
2362.59058	0.10744
2360.66194	0.11203
2358.73329	0.11635
2356.80465	0.11923
2354.87600	0.12021
2352.94735	0.11960
2351.01871	0.11811
2349.09006	0.11643
2347.16142	0.11486
2345.23277	0.11331
2343.30413	0.11169
2341.37548	0.11027
2339.44684	0.10964
2337.51819	0.11042
2335.58955	0.11289
2333.66090	0.11675
2331.73226	0.12117
2329.80361	0.12511
2327.87496	0.12778
2325.94632	0.12887
2324.01767	0.12861
2322.08903	0.12753
2320.16038	0.12621
2318.23174	0.12502
2316.30309	0.12407
2314.37445	0.12327
2312.44580	0.12241
2310.51716	0.12128
2308.58851	0.11973
2306.65987	0.11781
2304.73122	0.11572
2302.80257	0.11385
2300.87393	0.11259
2298.94528	0.11219
2297.01664	0.11269
2295.08799	0.11382
2293.15935	0.11518
2291.23070	0.11638
2289.30206	0.11725
2287.37341	0.11783
2285.44477	0.11822
2283.51612	0.11844
2281.58748	0.11844
2279.65883	0.11810
2277.73018	0.11732
2275.80154	0.11617
2273.87289	0.11486
2271.94425	0.11359
2270.01560	0.11247
2268.08696	0.11149
2266.15831	0.11063
2264.22967	0.10989
2262.30102	0.10933
2260.37238	0.10906
2258.44373	0.10923
2256.51509	0.10983
2254.58644	0.11048
2252.65779	0.11043
2250.72915	0.10895
2248.80050	0.10560
2246.87186	0.10055
2244.94321	0.09470
2243.01457	0.08951
2241.08592	0.08636
2239.15728	0.08589
2237.22863	0.08779
2235.29999	0.09107
2233.37134	0.09472
2231.44270	0.09793
2229.51405	0.10018
2227.58541	0.10121
2225.65676	0.10100
2223.72811	0.09961
2221.79947	0.09701
2219.87082	0.09355
2217.94218	0.08992
2216.01353	0.08672
2214.08489	0.08415
2212.15624	0.08206
2210.22760	0.08006
2208.29895	0.07774
2206.37031	0.07526
2204.44166	0.07352
2202.51302	0.07340
2200.58437	0.07472
2198.65572	0.07606
2196.72708	0.07561
2194.79843	0.07215
2192.86979	0.06588
2190.94114	0.05887
2189.01250	0.05422
2187.08385	0.05408
2185.15521	0.05796
2183.22656	0.06316
2181.29792	0.06656
2179.36927	0.06622
2177.44063	0.06216
2175.51198	0.05640
2173.58333	0.05164
2171.65469	0.04913
2169.72604	0.04811
2167.79740	0.04677
2165.86875	0.04329
2163.94011	0.03688
2162.01146	0.02904
2160.08282	0.02342
2158.15417	0.02316
2156.22553	0.02877
2154.29688	0.03843
2152.36824	0.04911
2150.43959	0.05728
2148.51094	0.06054
2146.58230	0.05952
2144.65365	0.05717
2142.72501	0.05632
2140.79636	0.05834
2138.86772	0.06339
2136.93907	0.07077
2135.01043	0.07921
2133.08178	0.08764
2131.15314	0.09545
2129.22449	0.10195
2127.29585	0.10621
2125.36720	0.10755
2123.43856	0.10590
2121.50991	0.10202
2119.58126	0.09742
2117.65262	0.09391
2115.72397	0.09265
2113.79533	0.09351
2111.86668	0.09558
2109.93804	0.09790
2108.00939	0.09977
2106.08075	0.10098
2104.15210	0.10170
2102.22346	0.10217
2100.29481	0.10231
2098.36617	0.10174
2096.43752	0.10026
2094.50887	0.09812
2092.58023	0.09596
2090.65158	0.09455
2088.72294	0.09436
2086.79429	0.09529
2084.86565	0.09661
2082.93700	0.09735
2081.00836	0.09678
2079.07971	0.09475
2077.15107	0.09187
2075.22242	0.08924
2073.29378	0.08784
2071.36513	0.08809
2069.43648	0.08961
2067.50784	0.09150
2065.57919	0.09278
2063.65055	0.09281
2061.72190	0.09147
2059.79326	0.08897
2057.86461	0.08564
2055.93597	0.08181
2054.00732	0.07786
2052.07868	0.07414
2050.15003	0.07084
2048.22139	0.06801
2046.29274	0.06551
2044.36409	0.06284
2042.43545	0.05932
2040.50680	0.05447
2038.57816	0.04830
2036.64951	0.04145
2034.72087	0.03513
2032.79222	0.03088
2030.86358	0.02999
2028.93493	0.03284
2027.00629	0.03849
2025.07764	0.04513
2023.14900	0.05092
2021.22035	0.05480
2019.29170	0.05664
2017.36306	0.05682
2015.43441	0.05564
2013.50577	0.05306
2011.57712	0.04885
2009.64848	0.04329
2007.71983	0.03774
2005.79119	0.03443
2003.86254	0.03540
2001.93390	0.04076
2000.00525	0.04926
1998.07661	0.05839
1996.14796	0.06513
1994.21932	0.06764
1992.29067	0.06599
1990.36202	0.06181
1988.43338	0.05726
1986.50473	0.05406
1984.57609	0.05289
1982.64744	0.05341
1980.71880	0.05489
1978.79015	0.05686
1976.86151	0.05929
1974.93286	0.06235
1973.00422	0.06614
1971.07557	0.07050
1969.14693	0.07492
1967.21828	0.07855
1965.28963	0.08035
1963.36099	0.07942
1961.43234	0.07528
1959.50370	0.06809
1957.57505	0.05873
1955.64641	0.04874
1953.71776	0.04001
1951.78912	0.03418
1949.86047	0.03214
1947.93183	0.03373
1946.00318	0.03789
1944.07454	0.04303
1942.14589	0.04748
1940.21724	0.04997
1938.28860	0.04990
1936.35995	0.04746
1934.43131	0.04343
1932.50266	0.03887
1930.57402	0.03481
1928.64537	0.03197
1926.71673	0.03062
1924.78808	0.03058
1922.85944	0.03138
1920.93079	0.03249
1919.00215	0.03344
1917.07350	0.03396
1915.14485	0.03393
1913.21621	0.03340
1911.28756	0.03246
1909.35892	0.03122
1907.43027	0.02983
1905.50163	0.02849
1903.57298	0.02748
1901.64434	0.02703
1899.71569	0.02722
1897.78705	0.02784
1895.85840	0.02851
1893.92976	0.02879
1892.00111	0.02838
1890.07246	0.02722
1888.14382	0.02551
1886.21517	0.02359
1884.28653	0.02171
1882.35788	0.02002
1880.42924	0.01853
1878.50059	0.01723
1876.57195	0.01604
1874.64330	0.01489
1872.71466	0.01372
1870.78601	0.01257
1868.85737	0.01152
1866.92872	0.01069
1865.00008	0.01014
1863.07143	0.00987
1861.14278	0.00980
1859.21414	0.00981
1857.28549	0.00984
1855.35685	0.00991
1853.42820	0.01004
1851.49956	0.01020
1849.57091	0.01023
1847.64227	0.00999
1845.71362	0.00943
1843.78498	0.00863
1841.85633	0.00778
1839.92769	0.00702
1837.99904	0.00643
1836.07039	0.00593
1834.14175	0.00538
1832.21310	0.00470
1830.28446	0.00392
1828.35581	0.00310
1826.42717	0.00232
1824.49852	0.00162
1822.56988	0.00098
1820.64123	0.00044
1818.71259	0.00007
1816.78394	0.00000
1814.85530	0.00032
1812.92665	0.00097
1810.99800	0.00180
1809.06936	0.00260
1807.14071	0.00324
1805.21207	0.00374
1803.28342	0.00422
1801.35478	0.00483
1799.42613	0.00564
1797.49749	0.00657
1795.56884	0.00748
1793.64020	0.00828
1791.71155	0.00900
1789.78291	0.00975
1787.85426	0.01072
1785.92561	0.01199
1783.99697	0.01356
1782.06832	0.01530
1780.13968	0.01704
1778.21103	0.01866
1776.28239	0.02010
1774.35374	0.02136
1772.42510	0.02247
1770.49645	0.02351
1768.56781	0.02454
1766.63916	0.02561
1764.71052	0.02679
1762.78187	0.02817
1760.85322	0.02981
1758.92458	0.03177
1756.99593	0.03413
1755.06729	0.03693
1753.13864	0.04024
1751.21000	0.04410
1749.28135	0.04856
1747.35271	0.05366
1745.42406	0.05938
1743.49542	0.06565
1741.56677	0.07233
1739.63813	0.07922
1737.70948	0.08616
1735.78084	0.09307
1733.85219	0.09997
1731.92354	0.10695
1729.99490	0.11413
1728.06625	0.12158
1726.13761	0.12932
1724.20896	0.13731
1722.28032	0.14552
1720.35167	0.15392
1718.42303	0.16254
1716.49438	0.17135
1714.56574	0.18033
1712.63709	0.18940
1710.70845	0.19850
1708.77980	0.20757
1706.85115	0.21662
1704.92251	0.22567
1702.99386	0.23473
1701.06522	0.24372
1699.13657	0.25258
1697.20793	0.26133
1695.27928	0.27014
1693.35064	0.27936
1691.42199	0.28944
1689.49335	0.30078
1687.56470	0.31359
1685.63606	0.32786
1683.70741	0.34339
1681.77876	0.35996
1679.85012	0.37740
1677.92147	0.39568
1675.99283	0.41486
1674.06418	0.43498
1672.13554	0.45604
1670.20689	0.47794
1668.27825	0.50054
1666.34960	0.52363
1664.42096	0.54700
1662.49231	0.57037
1660.56367	0.59342
1658.63502	0.61576
1656.70637	0.63700
1654.77773	0.65680
1652.84908	0.67492
1650.92044	0.69125
1648.99179	0.70581
1647.06315	0.71872
1645.13450	0.73008
1643.20586	0.74000
1641.27721	0.74855
1639.34857	0.75575
1637.41992	0.76153
1635.49128	0.76576
1633.56263	0.76824
1631.63399	0.76875
1629.70534	0.76706
1627.77669	0.76301
1625.84805	0.75652
1623.91940	0.74757
1621.99076	0.73618
1620.06211	0.72237
1618.13347	0.70617
1616.20482	0.68770
1614.27618	0.66726
1612.34753	0.64540
1610.41889	0.62279
1608.49024	0.60015
1606.56160	0.57802
1604.63295	0.55670
1602.70430	0.53626
1600.77566	0.51666
1598.84701	0.49800
1596.91837	0.48080
1594.98972	0.46626
1593.06108	0.45661
1591.13243	0.45516
1589.20379	0.46580
1587.27514	0.49173
1585.34650	0.53365
1583.41785	0.58813
1581.48921	0.64712
1579.56056	0.69910
1577.63191	0.73207
1575.70327	0.73719
1573.77462	0.71168
1571.84598	0.65954
1569.91733	0.59006
1567.98869	0.51460
1566.06004	0.44330
1564.13140	0.38277
1562.20275	0.33558
1560.27411	0.30138
1558.34546	0.27887
1556.41682	0.26775
1554.48817	0.26981
1552.55952	0.28876
1550.63088	0.32842
1548.70223	0.38972
1546.77359	0.46801
1544.84494	0.55196
1542.91630	0.62532
1540.98765	0.67130
1539.05901	0.67816
1537.13036	0.64340
1535.20172	0.57468
1533.27307	0.48687
1531.34443	0.39676
1529.41578	0.31794
1527.48713	0.25778
1525.55849	0.21717
1523.62984	0.19248
1521.70120	0.17831
1519.77255	0.16960
1517.84391	0.16272
1515.91526	0.15559
1513.98662	0.14742
1512.05797	0.13828
1510.12933	0.12877
1508.20068	0.11969
1506.27204	0.11178
1504.34339	0.10548
1502.41475	0.10089
1500.48610	0.09777
1498.55745	0.09570
1496.62881	0.09440
1494.70016	0.09392
1492.77152	0.09497
1490.84287	0.09887
1488.91423	0.10740
1486.98558	0.12251
1485.05694	0.14586
1483.12829	0.17819
1481.19965	0.21863
1479.27100	0.26448
1477.34236	0.31147
1475.41371	0.35464
1473.48506	0.38940
1471.55642	0.41248
1469.62777	0.42256
1467.69913	0.42027
1465.77048	0.40748
1463.84184	0.38673
1461.91319	0.36088
1459.98455	0.33296
1458.05590	0.30586
1456.12726	0.28186
1454.19861	0.26244
1452.26997	0.24822
1450.34132	0.23909
1448.41267	0.23464
1446.48403	0.23456
1444.55538	0.23878
1442.62674	0.24714
1440.69809	0.25895
1438.76945	0.27283
1436.84080	0.28704
1434.91216	0.30006
1432.98351	0.31121
1431.05487	0.32096
1429.12622	0.33054
1427.19758	0.34130
1425.26893	0.35388
1423.34028	0.36789
1421.41164	0.38200
1419.48299	0.39454
1417.55435	0.40413
1415.62570	0.41014
1413.69706	0.41272
1411.76841	0.41245
1409.83977	0.41009
1407.91112	0.40630
1405.98248	0.40161
1404.05383	0.39640
1402.12519	0.39097
1400.19654	0.38554
1398.26789	0.38022
1396.33925	0.37501
1394.41060	0.36990
1392.48196	0.36499
1390.55331	0.36055
1388.62467	0.35697
1386.69602	0.35460
1384.76738	0.35359
1382.83873	0.35369
1380.91009	0.35432
1378.98144	0.35476
1377.05280	0.35440
1375.12415	0.35299
1373.19551	0.35064
1371.26686	0.34771
1369.33821	0.34458
1367.40957	0.34151
1365.48092	0.33856
1363.55228	0.33568
1361.62363	0.33278
1359.69499	0.32979
1357.76634	0.32659
1355.83770	0.32300
1353.90905	0.31870
1351.98041	0.31331
1350.05176	0.30654
1348.12312	0.29828
1346.19447	0.28866
1344.26582	0.27803
1342.33718	0.26678
1340.40853	0.25521
1338.47989	0.24349
1336.55124	0.23168
1334.62260	0.21983
1332.69395	0.20809
1330.76531	0.19673
1328.83666	0.18607
1326.90802	0.17632
1324.97937	0.16754
1323.05073	0.15960
1321.12208	0.15227
1319.19343	0.14534
1317.26479	0.13875
1315.33614	0.13259
1313.40750	0.12707
1311.47885	0.12240
1309.55021	0.11867
1307.62156	0.11582
1305.69292	0.11359
1303.76427	0.11169
1301.83563	0.10981
1299.90698	0.10781
1297.97834	0.10570
1296.04969	0.10362
1294.12104	0.10171
1292.19240	0.10007
1290.26375	0.09873
1288.33511	0.09766
1286.40646	0.09686
1284.47782	0.09632
1282.54917	0.09604
1280.62053	0.09600
1278.69188	0.09612
1276.76324	0.09632
1274.83459	0.09654
1272.90595	0.09682
1270.97730	0.09724
1269.04866	0.09789
1267.12001	0.09883
1265.19136	0.10004
1263.26272	0.10142
1261.33407	0.10282
1259.40543	0.10405
1257.47678	0.10495
1255.54814	0.10541
1253.61949	0.10540
1251.69085	0.10496
1249.76220	0.10423
1247.83356	0.10342
1245.90491	0.10276
1243.97627	0.10246
1242.04762	0.10268
1240.11897	0.10344
1238.19033	0.10464
1236.26168	0.10607
1234.33304	0.10749
1232.40439	0.10869
1230.47575	0.10950
1228.54710	0.10982
1226.61846	0.10964
1224.68981	0.10900
1222.76117	0.10805
1220.83252	0.10701
1218.90388	0.10617
1216.97523	0.10573
1215.04658	0.10576
1213.11794	0.10612
1211.18929	0.10651
1209.26065	0.10660
1207.33200	0.10620
1205.40336	0.10540
1203.47471	0.10455
1201.54607	0.10411
1199.61742	0.10459
1197.68878	0.10635
1195.76013	0.10952
1193.83149	0.11393
1191.90284	0.11923
1189.97419	0.12500
1188.04555	0.13085
1186.11690	0.13647
1184.18826	0.14178
1182.25961	0.14691
1180.33097	0.15204
1178.40232	0.15733
1176.47368	0.16287
1174.54503	0.16882
1172.61639	0.17533
1170.68774	0.18250
1168.75910	0.19039
1166.83045	0.19894
1164.90180	0.20785
1162.97316	0.21656
1161.04451	0.22448
1159.11587	0.23131
1157.18722	0.23714
1155.25858	0.24232
1153.32993	0.24745
1151.40129	0.25313
1149.47264	0.25979
1147.54400	0.26752
1145.61535	0.27621
1143.68671	0.28577
1141.75806	0.29616
1139.82942	0.30742
1137.90077	0.31960
1135.97212	0.33270
1134.04348	0.34653
1132.11483	0.36058
1130.18619	0.37416
1128.25754	0.38678
1126.32890	0.39847
1124.40025	0.40993
1122.47161	0.42218
1120.54296	0.43606
1118.61432	0.45165
1116.68567	0.46796
1114.75703	0.48328
1112.82838	0.49590
1110.89973	0.50503
1108.97109	0.51104
1107.04244	0.51512
1105.11380	0.51859
1103.18515	0.52231
1101.25651	0.52643
1099.32786	0.53058
1097.39922	0.53440
1095.47057	0.53806
1093.54193	0.54232
1091.61328	0.54807
1089.68464	0.55588
1087.75599	0.56566
1085.82734	0.57659
1083.89870	0.58730
1081.97005	0.59635
1080.04141	0.60267
1078.11276	0.60568
1076.18412	0.60523
1074.25547	0.60156
1072.32683	0.59524
1070.39818	0.58699
1068.46954	0.57757
1066.54089	0.56767
1064.61225	0.55775
1062.68360	0.54786
1060.75495	0.53772
1058.82631	0.52705
1056.89766	0.51577
1054.96902	0.50401
1053.04037	0.49210
1051.11173	0.48047
1049.18308	0.46958
1047.25444	0.45981
1045.32579	0.45135
1043.39715	0.44420
1041.46850	0.43800
1039.53986	0.43191
1037.61121	0.42477
1035.68256	0.41552
1033.75392	0.40372
1031.82527	0.38969
1029.89663	0.37435
1027.96798	0.35890
1026.03934	0.34442
1024.11069	0.33162
1022.18205	0.32083
1020.25340	0.31215
1018.32476	0.30548
1016.39611	0.30046
1014.46747	0.29640
1012.53882	0.29244
1010.61018	0.28771
1008.68153	0.28163
1006.75288	0.27410
1004.82424	0.26555
1002.89559	0.25658
1000.96695	0.24768
999.03830	0.23904
997.10966	0.23059
995.18101	0.22196
993.25237	0.21263
991.32372	0.20210
989.39508	0.19015
987.46643	0.17689
985.53779	0.16271
983.60914	0.14815
981.68049	0.13378
979.75185	0.12001
977.82320	0.10694
975.89456	0.09449
973.96591	0.08262
972.03727	0.07148
970.10862	0.06144
968.17998	0.05302
966.25133	0.04667
964.32269	0.04258
962.39404	0.04052
960.46540	0.03993
958.53675	0.04008
956.60810	0.04013
954.67946	0.03950
952.75081	0.03799
950.82217	0.03585
948.89352	0.03355
946.96488	0.03170
945.03623	0.03089
943.10759	0.03147
941.17894	0.03335
939.25030	0.03604
937.32165	0.03890
935.39301	0.04130
933.46436	0.04263
931.53571	0.04241
929.60707	0.04060
927.67842	0.03756
925.74978	0.03375
923.82113	0.02963
921.89249	0.02558
919.96384	0.02173
918.03520	0.01792
916.10655	0.01394
914.17791	0.00992
912.24926	0.00626
910.32062	0.00339
908.39197	0.00152
906.46333	0.00063
904.53468	0.00046
902.60603	0.00072
900.67739	0.00141
898.74874	0.00280
896.82010	0.00528
894.89145	0.00905
892.96281	0.01397
891.03416	0.01951
889.10552	0.02483
887.17687	0.02911
885.24823	0.03187
883.31958	0.03314
881.39094	0.03342
879.46229	0.03357
877.53364	0.03434
875.60500	0.03603
873.67635	0.03841
871.74771	0.04085
869.81906	0.04263
867.89042	0.04329
865.96177	0.04286
864.03313	0.04172
862.10448	0.04031
860.17584	0.03904
858.24719	0.03826
856.31855	0.03818
854.38990	0.03868
852.46125	0.03950
850.53261	0.04046
848.60396	0.04155
846.67532	0.04283
844.74667	0.04448
842.81803	0.04692
840.88938	0.05062
838.96074	0.05578
837.03209	0.06220
835.10345	0.06939
833.17480	0.07662
831.24616	0.08295
829.31751	0.08750
827.38886	0.08979
825.46022	0.09008
823.53157	0.08925
821.60293	0.08849
819.67428	0.08888
817.74564	0.09107
815.81699	0.09508
813.88835	0.10048
811.95970	0.10674
810.03106	0.11357
808.10241	0.12112
806.17377	0.12977
804.24512	0.13966
802.31647	0.15027
800.38783	0.16050
798.45918	0.16911
796.53054	0.17536
794.60189	0.17952
792.67325	0.18286
790.74460	0.18704
788.81596	0.19326
786.88731	0.20159
784.95867	0.21103
783.03002	0.21993
781.10138	0.22687
779.17273	0.23124
777.24409	0.23341
775.31544	0.23430
773.38679	0.23497
771.45815	0.23633
769.52950	0.23880
767.60086	0.24221
765.67221	0.24603
763.74357	0.24961
761.81492	0.25241
759.88628	0.25415
757.95763	0.25512
756.02899	0.25599
754.10034	0.25740
752.17170	0.25974
750.24305	0.26320
748.31440	0.26769
746.38576	0.27279
744.45711	0.27803
742.52847	0.28354
740.59982	0.29010
738.67118	0.29866
736.74253	0.30994
734.81389	0.32424
732.88524	0.34117
730.95660	0.35944
729.02795	0.37718
727.09931	0.39276
725.17066	0.40507
723.24201	0.41318
721.31337	0.41616
719.38472	0.41368
717.45608	0.40652
715.52743	0.39644
713.59879	0.38578
711.67014	0.37687
709.74150	0.37136
707.81285	0.36966
705.88421	0.37113
703.95556	0.37477
702.02692	0.37974
700.09827	0.38548
698.16962	0.39155
696.24098	0.39747
694.31233	0.40273
692.38369	0.40701
690.45504	0.41034
688.52640	0.41307
686.59775	0.41576
684.66911	0.41886
682.74046	0.42262
680.81182	0.42711
678.88317	0.43218
676.95453	0.43741
675.02588	0.44217
673.09723	0.44588
671.16859	0.44814
669.23994	0.44892
667.31130	0.44859
665.38265	0.44790
663.45401	0.44767
661.52536	0.44831
659.59672	0.44981
657.66807	0.45190
655.73943	0.45420
653.81078	0.45645
651.88214	0.45858
649.95349	0.46083
648.02485	0.46353
646.09620	0.46699
644.16755	0.47138
642.23891	0.47665
640.31026	0.48250
638.38162	0.48849
636.45297	0.49409
634.52433	0.49891
632.59568	0.50296
630.66704	0.50672
628.73839	0.51041
626.80975	0.51313
624.88110	0.51271
622.95246	0.50666
621.02381	0.49378
619.09516	0.47558
617.16652	0.45687
615.23787	0.44426
613.30923	0.44317
611.38058	0.45482
609.45194	0.47558
607.52329	0.49877
605.59465	0.51793
603.66600	0.52956
601.73736	0.53414
599.80871	0.53498
597.88007	0.53598
595.95142	0.53956
594.02277	0.54599
592.09413	0.55386
590.16548	0.56136
588.23684	0.56714
586.30819	0.57073
584.37955	0.57237
582.45090	0.57265
580.52226	0.57221
578.59361	0.57167
576.66497	0.57170
574.73632	0.57295
572.80768	0.57594
570.87903	0.58086
568.95038	0.58745
567.02174	0.59498
565.09309	0.60242
563.16445	0.60893
561.23580	0.61416
559.30716	0.61830
557.37851	0.62192
555.44987	0.62571
553.52122	0.63026
551.59258	0.63591
549.66393	0.64248
547.73529	0.64936
545.80664	0.65568
543.87800	0.66061
541.94935	0.66377
540.02070	0.66541
538.09206	0.66632
536.16341	0.66733
534.23477	0.66881
532.30612	0.67047
530.37748	0.67159
528.44883	0.67150
526.52019	0.66995
524.59154	0.66722
522.66290	0.66380
520.73425	0.65989
518.80561	0.65525
516.87696	0.64937
514.94831	0.64199
513.01967	0.63342
511.09102	0.62442
509.16238	0.61593
507.23373	0.60859
505.30509	0.60242
503.37644	0.59696
501.44780	0.59174
499.51915	0.58666
497.59051	0.58214
495.66186	0.57876
493.73322	0.57694
491.80457	0.57660
489.87592	0.57722
487.94728	0.57813
486.01863	0.57897
484.08999	0.57994
482.16134	0.58161
480.23270	0.58447
478.30405	0.58857
476.37541	0.59330
474.44676	0.59757
472.51812	0.60013
470.58947	0.60009
468.66083	0.59727
466.73218	0.59216
464.80353	0.58574
462.87489	0.57915
460.94624	0.57325
459.01760	0.56827
457.08895	0.56370
455.16031	0.55856
453.23166	0.55188
451.30302	0.54322
449.37437	0.53295
447.44573	0.52217
445.51708	0.51225
443.58844	0.50430
441.65979	0.49869
439.73114	0.49502
437.80250	0.49237
435.87385	0.48975
433.94521	0.48643
432.01656	0.48212
430.08792	0.47703
428.15927	0.47161
426.23063	0.46621
424.30198	0.46084
422.37334	0.45504
420.44469	0.44808
418.51605	0.43924
416.58740	0.42820
414.65876	0.41536
412.73011	0.40181
410.80146	0.38899
408.87282	0.37824
406.94417	0.37044
405.01553	0.36579
403.08688	0.36373
401.15824	0.36314
399.22959	0.36263
397.30095	0.36095
395.37230	0.35734
393.44366	0.35159
391.51501	0.34413
389.58637	0.33571
387.65772	0.32723
385.72907	0.31948
383.80043	0.31297
381.87178	0.30797
379.94314	0.30444
378.01449	0.30197
376.08585	0.29989
374.15720	0.29734
372.22856	0.29357
370.29991	0.28818
368.37127	0.28114
366.44262	0.27271
364.51398	0.26323
362.58533	0.25309
360.65668	0.24279
358.72804	0.23295
356.79939	0.22423
354.87075	0.21718
352.94210	0.21190
351.01346	0.20796
349.08481	0.20449
347.15617	0.20059
345.22752	0.19566
343.29888	0.18959
341.37023	0.18263
339.44159	0.17527
337.51294	0.16813
335.58429	0.16189
333.65565	0.15717
331.72700	0.15428
329.79836	0.15297
327.86971	0.15240
325.94107	0.15130
324.01242	0.14839
322.08378	0.14293
320.15513	0.13499
318.22649	0.12546
316.29784	0.11577
314.36920	0.10730
312.44055	0.10097
310.51190	0.09701
308.58326	0.09494
306.65461	0.09369
304.72597	0.09199
302.79732	0.08875
300.86868	0.08339
298.94003	0.07607
297.01139	0.06777
295.08274	0.06020
293.15410	0.05541
291.22545	0.05521
289.29681	0.06048
287.36816	0.07072
285.43952	0.08401
283.51087	0.09747
281.58222	0.10834
279.65358	0.11490
277.72493	0.11605
275.79629	0.11268
273.86764	0.10669
271.93900	0.10017
270.01035	0.09473
268.08171	0.09112
266.15306	0.08917
264.22442	0.08827
262.29577	0.08777
260.36713	0.08723
258.43848	0.08635
256.50983	0.08495
254.58119	0.08291
252.65254	0.08029
250.72390	0.07743
248.79525	0.07511
246.86661	0.07444
244.93796	0.07642
243.00932	0.08149
241.08067	0.08930
239.15203	0.09884
237.22338	0.10860
235.29474	0.11690
233.36609	0.12223
231.43744	0.12361
229.50880	0.12095
227.58015	0.11510
225.65151	0.10771
223.72286	0.10073
221.79422	0.09569
219.86557	0.09321
217.93693	0.09305
216.00828	0.09464
214.07964	0.09762
212.15099	0.10202
210.22235	0.10798
208.29370	0.11533
206.36505	0.12341
204.43641	0.13144
202.50776	0.13904
200.57912	0.14666
198.65047	0.15544
196.72183	0.16640
194.79318	0.17938
192.86454	0.19267
190.93589	0.20349
189.00725	0.20906
187.07860	0.20770
185.14996	0.19952
183.22131	0.18620
181.29267	0.17001
179.36402	0.15289
177.43537	0.13626
175.50673	0.12141
173.57808	0.10976
171.64944	0.10291
169.72079	0.10259
167.79215	0.11014
165.86350	0.12534
163.93486	0.14562
162.00621	0.16593
160.07757	0.18261
158.14892	0.19368
156.22028	0.19888
154.29163	0.19888
152.36298	0.19888
150.43434	0.19888
148.50569	0.19888
