4497.60101	0.19849
4495.67236	0.19849
4493.74372	0.19849
4491.81507	0.19849
4489.88643	0.19849
4487.95778	0.19804
4486.02914	0.19627
4484.10049	0.19342
4482.17185	0.18982
4480.24320	0.18592
4478.31455	0.18337
4476.38591	0.18272
4474.45726	0.18374
4472.52862	0.18556
4470.59997	0.18740
4468.67133	0.18860
4466.74268	0.18835
4464.81404	0.18629
4462.88539	0.18312
4460.95675	0.17989
4459.02810	0.17720
4457.09946	0.17523
4455.17081	0.17411
4453.24216	0.17387
4451.31352	0.17445
4449.38487	0.17607
4447.45623	0.17917
4445.52758	0.18376
4443.59894	0.18929
4441.67029	0.19496
4439.74165	0.19988
4437.81300	0.20309
4435.88436	0.20412
4433.95571	0.20338
4432.02707	0.20185
4430.09842	0.20053
4428.16978	0.19999
4426.24113	0.20009
4424.31248	0.20005
4422.38384	0.19881
4420.45519	0.19583
4418.52655	0.19178
4416.59790	0.18810
4414.66926	0.18586
4412.74061	0.18497
4410.81197	0.18460
4408.88332	0.18387
4406.95468	0.18198
4405.02603	0.17869
4403.09739	0.17490
4401.16874	0.17209
4399.24009	0.17106
4397.31145	0.17158
4395.38280	0.17311
4393.45416	0.17537
4391.52551	0.17802
4389.59687	0.18052
4387.66822	0.18257
4385.73958	0.18427
4383.81093	0.18548
4381.88229	0.18577
4379.95364	0.18502
4378.02500	0.18392
4376.09635	0.18356
4374.16770	0.18443
4372.23906	0.18614
4370.31041	0.18776
4368.38177	0.18808
4366.45312	0.18623
4364.52448	0.18244
4362.59583	0.17824
4360.66719	0.17560
4358.73854	0.17568
4356.80990	0.17827
4354.88125	0.18223
4352.95261	0.18634
4351.02396	0.18986
4349.09531	0.19256
4347.16667	0.19458
4345.23802	0.19589
4343.30938	0.19588
4341.38073	0.19366
4339.45209	0.18902
4337.52344	0.18300
4335.59480	0.17722
4333.66615	0.17299
4331.73751	0.17095
4329.80886	0.17100
4327.88022	0.17230
4325.95157	0.17383
4324.02292	0.17535
4322.09428	0.17737
4320.16563	0.18030
4318.23699	0.18381
4316.30834	0.18695
4314.37970	0.18869
4312.45105	0.18849
4310.52241	0.18656
4308.59376	0.18373
4306.66512	0.18101
4304.73647	0.17917
4302.80783	0.17860
4300.87918	0.17916
4298.95054	0.18034
4297.02189	0.18169
4295.09324	0.18317
4293.16460	0.18484
4291.23595	0.18652
4289.30731	0.18790
4287.37866	0.18870
4285.45002	0.18854
4283.52137	0.18684
4281.59273	0.18330
4279.66408	0.17836
4277.73544	0.17308
4275.80679	0.16861
4273.87815	0.16580
4271.94950	0.16490
4270.02085	0.16565
4268.09221	0.16751
4266.16356	0.16985
4264.23492	0.17203
4262.30627	0.17370
4260.37763	0.17491
4258.44898	0.17568
4256.52034	0.17571
4254.59169	0.17491
4252.66305	0.17380
4250.73440	0.17305
4248.80576	0.17300
4246.87711	0.17404
4244.94846	0.17648
4243.01982	0.18000
4241.09117	0.18353
4239.16253	0.18590
4237.23388	0.18619
4235.30524	0.18395
4233.37659	0.17959
4231.44795	0.17452
4229.51930	0.17045
4227.59066	0.16859
4225.66201	0.16913
4223.73337	0.17133
4221.80472	0.17392
4219.87607	0.17580
4217.94743	0.17645
4216.01878	0.17601
4214.09014	0.17484
4212.16149	0.17313
4210.23285	0.17106
4208.30420	0.16925
4206.37556	0.16864
4204.44691	0.16990
4202.51827	0.17302
4200.58962	0.17728
4198.66098	0.18137
4196.73233	0.18390
4194.80368	0.18443
4192.87504	0.18394
4190.94639	0.18407
4189.01775	0.18596
4187.08910	0.18978
4185.16046	0.19457
4183.23181	0.19847
4181.30317	0.19946
4179.37452	0.19646
4177.44588	0.18994
4175.51723	0.18161
4173.58859	0.17379
4171.65994	0.16865
4169.73130	0.16743
4167.80265	0.17009
4165.87400	0.17530
4163.94536	0.18084
4162.01671	0.18452
4160.08807	0.18519
4158.15942	0.18290
4156.23078	0.17861
4154.30213	0.17371
4152.37349	0.16948
4150.44484	0.16659
4148.51620	0.16483
4146.58755	0.16368
4144.65891	0.16294
4142.73026	0.16299
4140.80161	0.16447
4138.87297	0.16757
4136.94432	0.17166
4135.01568	0.17560
4133.08703	0.17834
4131.15839	0.17926
4129.22974	0.17853
4127.30110	0.17724
4125.37245	0.17684
4123.44381	0.17818
4121.51516	0.18116
4119.58652	0.18499
4117.65787	0.18841
4115.72922	0.19018
4113.80058	0.18963
4111.87193	0.18678
4109.94329	0.18226
4108.01464	0.17726
4106.08600	0.17314
4104.15735	0.17082
4102.22871	0.17040
4100.30006	0.17143
4098.37142	0.17323
4096.44277	0.17487
4094.51413	0.17544
4092.58548	0.17457
4090.65683	0.17231
4088.72819	0.16885
4086.79954	0.16461
4084.87090	0.16057
4082.94225	0.15807
4081.01361	0.15811
4079.08496	0.16092
4077.15632	0.16582
4075.22767	0.17139
4073.29903	0.17599
4071.37038	0.17856
4069.44174	0.17903
4067.51309	0.17802
4065.58444	0.17622
4063.65580	0.17397
4061.72715	0.17146
4059.79851	0.16886
4057.86986	0.16634
4055.94122	0.16411
4054.01257	0.16242
4052.08393	0.16157
4050.15528	0.16182
4048.22664	0.16362
4046.29799	0.16738
4044.36935	0.17273
4042.44070	0.17831
4040.51206	0.18240
4038.58341	0.18364
4036.65476	0.18147
4034.72612	0.17644
4032.79747	0.17024
4030.86883	0.16501
4028.94018	0.16232
4027.01154	0.16285
4025.08289	0.16653
4023.15425	0.17243
4021.22560	0.17876
4019.29696	0.18339
4017.36831	0.18488
4015.43967	0.18277
4013.51102	0.17806
4011.58237	0.17260
4009.65373	0.16829
4007.72508	0.16643
4005.79644	0.16745
4003.86779	0.17087
4001.93915	0.17561
4000.01050	0.18029
3998.08186	0.18358
3996.15321	0.18439
3994.22457	0.18218
3992.29592	0.17729
3990.36728	0.17097
3988.43863	0.16488
3986.50998	0.16039
3984.58134	0.15819
3982.65269	0.15815
3980.72405	0.15962
3978.79540	0.16190
3976.86676	0.16448
3974.93811	0.16718
3973.00947	0.16995
3971.08082	0.17280
3969.15218	0.17558
3967.22353	0.17792
3965.29489	0.17932
3963.36624	0.17942
3961.43759	0.17827
3959.50895	0.17649
3957.58030	0.17511
3955.65166	0.17522
3953.72301	0.17745
3951.79437	0.18164
3949.86572	0.18681
3947.93708	0.19157
3946.00843	0.19471
3944.07979	0.19557
3942.15114	0.19424
3940.22250	0.19134
3938.29385	0.18779
3936.36521	0.18443
3934.43656	0.18175
3932.50791	0.17987
3930.57927	0.17868
3928.65062	0.17806
3926.72198	0.17786
3924.79333	0.17797
3922.86469	0.17828
3920.93604	0.17865
3919.00740	0.17882
3917.07875	0.17861
3915.15011	0.17808
3913.22146	0.17763
3911.29282	0.17763
3909.36417	0.17823
3907.43552	0.17919
3905.50688	0.18004
3903.57823	0.18028
3901.64959	0.17976
3899.72094	0.17888
3897.79230	0.17851
3895.86365	0.17947
3893.93501	0.18208
3892.00636	0.18591
3890.07772	0.18992
3888.14907	0.19285
3886.22043	0.19367
3884.29178	0.19202
3882.36313	0.18849
3880.43449	0.18428
3878.50584	0.18072
3876.57720	0.17865
3874.64855	0.17824
3872.71991	0.17897
3870.79126	0.17999
3868.86262	0.18064
3866.93397	0.18103
3865.00533	0.18205
3863.07668	0.18474
3861.14804	0.18963
3859.21939	0.19621
3857.29074	0.20290
3855.36210	0.20741
3853.43345	0.20776
3851.50481	0.20341
3849.57616	0.19579
3847.64752	0.18757
3845.71887	0.18153
3843.79023	0.17933
3841.86158	0.18093
3839.93294	0.18464
3838.00429	0.18807
3836.07565	0.18941
3834.14700	0.18832
3832.21835	0.18583
3830.28971	0.18363
3828.36106	0.18310
3826.43242	0.18481
3824.50377	0.18833
3822.57513	0.19250
3820.64648	0.19603
3818.71784	0.19807
3816.78919	0.19851
3814.86055	0.19783
3812.93190	0.19679
3811.00326	0.19613
3809.07461	0.19613
3807.14597	0.19655
3805.21732	0.19674
3803.28867	0.19603
3801.36003	0.19399
3799.43138	0.19057
3797.50274	0.18624
3795.57409	0.18174
3793.64545	0.17787
3791.71680	0.17522
3789.78816	0.17413
3787.85951	0.17462
3785.93087	0.17635
3784.00222	0.17871
3782.07358	0.18105
3780.14493	0.18280
3778.21628	0.18361
3776.28764	0.18343
3774.35899	0.18247
3772.43035	0.18114
3770.50170	0.17987
3768.57306	0.17908
3766.64441	0.17905
3764.71577	0.17985
3762.78712	0.18144
3760.85848	0.18371
3758.92983	0.18663
3757.00119	0.19033
3755.07254	0.19498
3753.14389	0.20048
3751.21525	0.20615
3749.28660	0.21083
3747.35796	0.21326
3745.42931	0.21258
3743.50067	0.20871
3741.57202	0.20250
3739.64338	0.19534
3737.71473	0.18851
3735.78609	0.18274
3733.85744	0.17827
3731.92880	0.17504
3730.00015	0.17301
3728.07150	0.17219
3726.14286	0.17257
3724.21421	0.17393
3722.28557	0.17585
3720.35692	0.17789
3718.42828	0.17968
3716.49963	0.18097
3714.57099	0.18165
3712.64234	0.18170
3710.71370	0.18114
3708.78505	0.18010
3706.85641	0.17897
3704.92776	0.17827
3702.99911	0.17852
3701.07047	0.18015
3699.14182	0.18339
3697.21318	0.18811
3695.28453	0.19371
3693.35589	0.19918
3691.42724	0.20342
3689.49860	0.20568
3687.56995	0.20608
3685.64131	0.20587
3683.71266	0.20692
3681.78402	0.21082
3679.85537	0.21805
3677.92673	0.22782
3675.99808	0.23839
3674.06943	0.24790
3672.14079	0.25517
3670.21214	0.26000
3668.28350	0.26299
3666.35485	0.26515
3664.42621	0.26761
3662.49756	0.27145
3660.56892	0.27754
3658.64027	0.28630
3656.71163	0.29745
3654.78298	0.30996
3652.85434	0.32223
3650.92569	0.33270
3648.99704	0.34054
3647.06840	0.34599
3645.13975	0.35028
3643.21111	0.35506
3641.28246	0.36176
3639.35382	0.37110
3637.42517	0.38286
3635.49653	0.39600
3633.56788	0.40923
3631.63924	0.42136
3629.71059	0.43165
3627.78195	0.43986
3625.85330	0.44626
3623.92465	0.45132
3621.99601	0.45548
3620.06736	0.45906
3618.13872	0.46232
3616.21007	0.46547
3614.28143	0.46864
3612.35278	0.47197
3610.42414	0.47563
3608.49549	0.47984
3606.56685	0.48474
3604.63820	0.49054
3602.70956	0.49743
3600.78091	0.50552
3598.85226	0.51472
3596.92362	0.52485
3594.99497	0.53564
3593.06633	0.54671
3591.13768	0.55745
3589.20904	0.56720
3587.28039	0.57539
3585.35175	0.58175
3583.42310	0.58645
3581.49446	0.59031
3579.56581	0.59460
3577.63717	0.60058
3575.70852	0.60906
3573.77988	0.62002
3571.85123	0.63260
3569.92258	0.64532
3567.99394	0.65670
3566.06529	0.66588
3564.13665	0.67294
3562.20800	0.67883
3560.27936	0.68488
3558.35071	0.69227
3556.42207	0.70155
3554.49342	0.71248
3552.56478	0.72425
3550.63613	0.73586
3548.70749	0.74652
3546.77884	0.75596
3544.85019	0.76437
3542.92155	0.77235
3540.99290	0.78053
3539.06426	0.78932
3537.13561	0.79873
3535.20697	0.80850
3533.27832	0.81834
3531.34968	0.82805
3529.42103	0.83776
3527.49239	0.84778
3525.56374	0.85847
3523.63510	0.86995
3521.70645	0.88202
3519.77780	0.89420
3517.84916	0.90577
3515.92051	0.91593
3513.99187	0.92415
3512.06322	0.93041
3510.13458	0.93524
3508.20593	0.93951
3506.27729	0.94421
3504.34864	0.95005
3502.42000	0.95715
3500.49135	0.96506
3498.56271	0.97302
3496.63406	0.98049
3494.70541	0.98735
3492.77677	0.99398
3490.84812	1.00097
3488.91948	1.00878
3486.99083	1.01745
3485.06219	1.02649
3483.13354	1.03511
3481.20490	1.04267
3479.27625	1.04899
3477.34761	1.05433
3475.41896	1.05920
3473.49032	1.06410
3471.56167	1.06939
3469.63302	1.07520
3467.70438	1.08157
3465.77573	1.08856
3463.84709	1.09626
3461.91844	1.10457
3459.98980	1.11307
3458.06115	1.12115
3456.13251	1.12833
3454.20386	1.13445
3452.27522	1.13973
3450.34657	1.14471
3448.41793	1.14992
3446.48928	1.15555
3444.56064	1.16136
3442.63199	1.16694
3440.70334	1.17199
3438.77470	1.17646
3436.84605	1.18053
3434.91741	1.18443
3432.98876	1.18828
3431.06012	1.19205
3429.13147	1.19570
3427.20283	1.19929
3425.27418	1.20304
3423.34554	1.20717
3421.41689	1.21165
3419.48825	1.21614
3417.55960	1.22010
3415.63095	1.22317
3413.70231	1.22542
3411.77366	1.22736
3409.84502	1.22964
3407.91637	1.23276
3405.98773	1.23676
3404.05908	1.24126
3402.13044	1.24561
3400.20179	1.24931
3398.27315	1.25216
3396.34450	1.25429
3394.41586	1.25600
3392.48721	1.25760
3390.55856	1.25926
3388.62992	1.26088
3386.70127	1.26213
3384.77263	1.26263
3382.84398	1.26212
3380.91534	1.26060
3378.98669	1.25832
3377.05805	1.25580
3375.12940	1.25358
3373.20076	1.25205
3371.27211	1.25137
3369.34347	1.25145
3367.41482	1.25202
3365.48617	1.25265
3363.55753	1.25293
3361.62888	1.25270
3359.70024	1.25218
3357.77159	1.25190
3355.84295	1.25241
3353.91430	1.25391
3351.98566	1.25602
3350.05701	1.25785
3348.12837	1.25839
3346.19972	1.25715
3344.27108	1.25433
3342.34243	1.25077
3340.41378	1.24746
3338.48514	1.24513
3336.55649	1.24397
3334.62785	1.24371
3332.69920	1.24394
3330.77056	1.24447
3328.84191	1.24539
3326.91327	1.24691
3324.98462	1.24918
3323.05598	1.25207
3321.12733	1.25508
3319.19869	1.25759
3317.27004	1.25912
3315.34140	1.25964
3313.41275	1.25957
3311.48410	1.25961
3309.55546	1.26040
3307.62681	1.26211
3305.69817	1.26438
3303.76952	1.26651
3301.84088	1.26777
3299.91223	1.26774
3297.98359	1.26636
3296.05494	1.26386
3294.12630	1.26059
3292.19765	1.25694
3290.26901	1.25330
3288.34036	1.24997
3286.41171	1.24716
3284.48307	1.24486
3282.55442	1.24294
3280.62578	1.24108
3278.69713	1.23900
3276.76849	1.23660
3274.83984	1.23398
3272.91120	1.23131
3270.98255	1.22866
3269.05391	1.22595
3267.12526	1.22293
3265.19662	1.21919
3263.26797	1.21432
3261.33932	1.20805
3259.41068	1.20045
3257.48203	1.19189
3255.55339	1.18301
3253.62474	1.17455
3251.69610	1.16706
3249.76745	1.16077
3247.83881	1.15559
3245.91016	1.15119
3243.98152	1.14720
3242.05287	1.14337
3240.12423	1.13964
3238.19558	1.13601
3236.26693	1.13237
3234.33829	1.12835
3232.40964	1.12344
3230.48100	1.11729
3228.55235	1.10990
3226.62371	1.10179
3224.69506	1.09381
3222.76642	1.08674
3220.83777	1.08086
3218.90913	1.07584
3216.98048	1.07095
3215.05184	1.06561
3213.12319	1.05968
3211.19455	1.05347
3209.26590	1.04742
3207.33725	1.04168
3205.40861	1.03597
3203.47996	1.02977
3201.55132	1.02271
3199.62267	1.01496
3197.69403	1.00727
3195.76538	1.00057
3193.83674	0.99545
3191.90809	0.99175
3189.97945	0.98861
3188.05080	0.98490
3186.12216	0.97977
3184.19351	0.97314
3182.26486	0.96575
3180.33622	0.95882
3178.40757	0.95352
3176.47893	0.95036
3174.55028	0.94910
3172.62164	0.94882
3170.69299	0.94834
3168.76435	0.94658
3166.83570	0.94290
3164.90706	0.93718
3162.97841	0.92986
3161.04977	0.92175
3159.12112	0.91372
3157.19247	0.90647
3155.26383	0.90025
3153.33518	0.89481
3151.40654	0.88953
3149.47789	0.88383
3147.54925	0.87742
3145.62060	0.87048
3143.69196	0.86351
3141.76331	0.85712
3139.83467	0.85168
3137.90602	0.84721
3135.97738	0.84337
3134.04873	0.83971
3132.12008	0.83580
3130.19144	0.83135
3128.26279	0.82631
3126.33415	0.82086
3124.40550	0.81536
3122.47686	0.81029
3120.54821	0.80615
3118.61957	0.80329
3116.69092	0.80176
3114.76228	0.80120
3112.83363	0.80084
3110.90499	0.79981
3108.97634	0.79747
3107.04769	0.79377
3105.11905	0.78920
3103.19040	0.78460
3101.26176	0.78078
3099.33311	0.77813
3097.40447	0.77647
3095.47582	0.77526
3093.54718	0.77388
3091.61853	0.77195
3089.68989	0.76937
3087.76124	0.76621
3085.83260	0.76257
3083.90395	0.75855
3081.97531	0.75423
3080.04666	0.74981
3078.11801	0.74560
3076.18937	0.74189
3074.26072	0.73878
3072.33208	0.73612
3070.40343	0.73348
3068.47479	0.73035
3066.54614	0.72640
3064.61750	0.72155
3062.68885	0.71610
3060.76021	0.71055
3058.83156	0.70537
3056.90292	0.70078
3054.97427	0.69676
3053.04562	0.69319
3051.11698	0.68992
3049.18833	0.68690
3047.25969	0.68417
3045.33104	0.68177
3043.40240	0.67951
3041.47375	0.67698
3039.54511	0.67380
3037.61646	0.66995
3035.68782	0.66585
3033.75917	0.66219
3031.83053	0.65956
3029.90188	0.65803
3027.97323	0.65704
3026.04459	0.65563
3024.11594	0.65299
3022.18730	0.64887
3020.25865	0.64383
3018.33001	0.63891
3016.40136	0.63509
3014.47272	0.63290
3012.54407	0.63220
3010.61543	0.63240
3008.68678	0.63279
3006.75814	0.63285
3004.82949	0.63239
3002.90084	0.63155
3000.97220	0.63070
2999.04355	0.63016
2997.11491	0.63003
2995.18626	0.63020
2993.25762	0.63058
2991.32897	0.63122
2989.40033	0.63226
2987.47168	0.63395
2985.54304	0.63655
2983.61439	0.64015
2981.68575	0.64456
2979.75710	0.64956
2977.82845	0.65516
2975.89981	0.66154
2973.97116	0.66892
2972.04252	0.67727
2970.11387	0.68628
2968.18523	0.69540
2966.25658	0.70405
2964.32794	0.71164
2962.39929	0.71762
2960.47065	0.72135
2958.54200	0.72229
2956.61336	0.72028
2954.68471	0.71587
2952.75607	0.71045
2950.82742	0.70597
2948.89877	0.70421
2946.97013	0.70615
2945.04148	0.71183
2943.11284	0.72071
2941.18419	0.73203
2939.25555	0.74515
2937.32690	0.75979
2935.39826	0.77596
2933.46961	0.79359
2931.54097	0.81227
2929.61232	0.83129
2927.68368	0.84973
2925.75503	0.86624
2923.82638	0.87884
2921.89774	0.88508
2919.96909	0.88279
2918.04045	0.87086
2916.11180	0.84974
2914.18316	0.82156
2912.25451	0.78989
2910.32587	0.75875
2908.39722	0.73117
2906.46858	0.70850
2904.53993	0.69070
2902.61129	0.67696
2900.68264	0.66606
2898.75399	0.65677
2896.82535	0.64827
2894.89670	0.64028
2892.96806	0.63272
2891.03941	0.62568
2889.11077	0.61948
2887.18212	0.61455
2885.25348	0.61102
2883.32483	0.60869
2881.39619	0.60708
2879.46754	0.60559
2877.53890	0.60366
2875.61025	0.60103
2873.68160	0.59771
2871.75296	0.59403
2869.82431	0.59069
2867.89567	0.58874
2865.96702	0.58929
2864.03838	0.59341
2862.10973	0.60190
2860.18109	0.61480
2858.25244	0.63083
2856.32380	0.64738
2854.39515	0.66089
2852.46651	0.66764
2850.53786	0.66491
2848.60922	0.65214
2846.68057	0.63130
2844.75192	0.60617
2842.82328	0.58094
2840.89463	0.55873
2838.96599	0.54096
2837.03734	0.52746
2835.10870	0.51718
2833.18005	0.50894
2831.25141	0.50199
2829.32276	0.49614
2827.39412	0.49142
2825.46547	0.48772
2823.53683	0.48476
2821.60818	0.48230
2819.67953	0.48015
2817.75089	0.47804
2815.82224	0.47576
2813.89360	0.47336
2811.96495	0.47109
2810.03631	0.46915
2808.10766	0.46759
2806.17902	0.46631
2804.25037	0.46503
2802.32173	0.46340
2800.39308	0.46124
2798.46444	0.45869
2796.53579	0.45619
2794.60714	0.45412
2792.67850	0.45244
2790.74985	0.45087
2788.82121	0.44907
2786.89256	0.44689
2784.96392	0.44441
2783.03527	0.44193
2781.10663	0.43975
2779.17798	0.43804
2777.24934	0.43674
2775.32069	0.43568
2773.39205	0.43470
2771.46340	0.43372
2769.53475	0.43268
2767.60611	0.43158
2765.67746	0.43043
2763.74882	0.42937
2761.82017	0.42851
2759.89153	0.42793
2757.96288	0.42762
2756.03424	0.42748
2754.10559	0.42736
2752.17695	0.42714
2750.24830	0.42669
2748.31966	0.42579
2746.39101	0.42419
2744.46236	0.42190
2742.53372	0.41933
2740.60507	0.41702
2738.67643	0.41537
2736.74778	0.41445
2734.81914	0.41396
2732.89049	0.41329
2730.96185	0.41194
2729.03320	0.40991
2727.10456	0.40778
2725.17591	0.40619
2723.24727	0.40546
2721.31862	0.40544
2719.38998	0.40570
2717.46133	0.40578
2715.53268	0.40534
2713.60404	0.40438
2711.67539	0.40322
2709.74675	0.40221
2707.81810	0.40147
2705.88946	0.40088
2703.96081	0.40023
2702.03217	0.39929
2700.10352	0.39790
2698.17488	0.39620
2696.24623	0.39471
2694.31759	0.39393
2692.38894	0.39405
2690.46029	0.39482
2688.53165	0.39571
2686.60300	0.39600
2684.67436	0.39498
2682.74571	0.39248
2680.81707	0.38898
2678.88842	0.38529
2676.95978	0.38215
2675.03113	0.38012
2673.10249	0.37946
2671.17384	0.37994
2669.24520	0.38081
2667.31655	0.38127
2665.38790	0.38079
2663.45926	0.37923
2661.53061	0.37689
2659.60197	0.37450
2657.67332	0.37284
2655.74468	0.37228
2653.81603	0.37263
2651.88739	0.37338
2649.95874	0.37392
2648.03010	0.37374
2646.10145	0.37258
2644.17281	0.37062
2642.24416	0.36820
2640.31551	0.36566
2638.38687	0.36336
2636.45822	0.36180
2634.52958	0.36122
2632.60093	0.36135
2630.67229	0.36161
2628.74364	0.36147
2626.81500	0.36061
2624.88635	0.35889
2622.95771	0.35652
2621.02906	0.35403
2619.10042	0.35178
2617.17177	0.34960
2615.24312	0.34713
2613.31448	0.34426
2611.38583	0.34112
2609.45719	0.33795
2607.52854	0.33509
2605.59990	0.33308
2603.67125	0.33239
2601.74261	0.33321
2599.81396	0.33541
2597.88532	0.33866
2595.95667	0.34247
2594.02803	0.34631
2592.09938	0.34972
2590.17074	0.35241
2588.24209	0.35415
2586.31344	0.35455
2584.38480	0.35312
2582.45615	0.34952
2580.52751	0.34410
2578.59886	0.33811
2576.67022	0.33310
2574.74157	0.33017
2572.81293	0.32963
2570.88428	0.33106
2568.95564	0.33331
2567.02699	0.33506
2565.09835	0.33557
2563.16970	0.33499
2561.24105	0.33369
2559.31241	0.33196
2557.38376	0.33026
2555.45512	0.32941
2553.52647	0.33001
2551.59783	0.33189
2549.66918	0.33427
2547.74054	0.33625
2545.81189	0.33697
2543.88325	0.33581
2541.95460	0.33285
2540.02596	0.32906
2538.09731	0.32557
2536.16866	0.32280
2534.24002	0.32058
2532.31137	0.31895
2530.38273	0.31832
2528.45408	0.31902
2526.52544	0.32096
2524.59679	0.32363
2522.66815	0.32606
2520.73950	0.32699
2518.81086	0.32564
2516.88221	0.32252
2514.95357	0.31918
2513.02492	0.31707
2511.09627	0.31668
2509.16763	0.31743
2507.23898	0.31822
2505.31034	0.31800
2503.38169	0.31648
2501.45305	0.31440
2499.52440	0.31302
2497.59576	0.31334
2495.66711	0.31553
2493.73847	0.31898
2491.80982	0.32287
2489.88118	0.32651
2487.95253	0.32922
2486.02389	0.33040
2484.09524	0.32976
2482.16659	0.32753
2480.23795	0.32431
2478.30930	0.32087
2476.38066	0.31803
2474.45201	0.31607
2472.52337	0.31448
2470.59472	0.31262
2468.66608	0.31044
2466.73743	0.30857
2464.80879	0.30785
2462.88014	0.30889
2460.95150	0.31164
2459.02285	0.31522
2457.09420	0.31856
2455.16556	0.32127
2453.23691	0.32351
2451.30827	0.32526
2449.37962	0.32627
2447.45098	0.32625
2445.52233	0.32494
2443.59369	0.32207
2441.66504	0.31779
2439.73640	0.31294
2437.80775	0.30859
2435.87911	0.30540
2433.95046	0.30374
2432.02181	0.30393
2430.09317	0.30605
2428.16452	0.30953
2426.23588	0.31360
2424.30723	0.31780
2422.37859	0.32168
2420.44994	0.32432
2418.52130	0.32470
2416.59265	0.32259
2414.66401	0.31879
2412.73536	0.31473
2410.80672	0.31215
2408.87807	0.31238
2406.94942	0.31524
2405.02078	0.31882
2403.09213	0.32076
2401.16349	0.31985
2399.23484	0.31640
2397.30620	0.31179
2395.37755	0.30784
2393.44891	0.30593
2391.52026	0.30640
2389.59162	0.30860
2387.66297	0.31162
2385.73433	0.31481
2383.80568	0.31781
2381.87703	0.32044
2379.94839	0.32266
2378.01974	0.32441
2376.09110	0.32541
2374.16245	0.32525
2372.23381	0.32362
2370.30516	0.32037
2368.37652	0.31551
2366.44787	0.30932
2364.51923	0.30260
2362.59058	0.29633
2360.66194	0.29130
2358.73329	0.28826
2356.80465	0.28802
2354.87600	0.29111
2352.94735	0.29733
2351.01871	0.30570
2349.09006	0.31467
2347.16142	0.32227
2345.23277	0.32654
2343.30413	0.32674
2341.37548	0.32387
2339.44684	0.32026
2337.51819	0.31835
2335.58955	0.31953
2333.66090	0.32335
2331.73226	0.32774
2329.80361	0.33015
2327.87496	0.32888
2325.94632	0.32387
2324.01767	0.31657
2322.08903	0.30905
2320.16038	0.30305
2318.23174	0.29941
2316.30309	0.29824
2314.37445	0.29922
2312.44580	0.30170
2310.51716	0.30481
2308.58851	0.30757
2306.65987	0.30911
2304.73122	0.30896
2302.80257	0.30733
2300.87393	0.30504
2298.94528	0.30314
2297.01664	0.30231
2295.08799	0.30267
2293.15935	0.30395
2291.23070	0.30587
2289.30206	0.30828
2287.37341	0.31105
2285.44477	0.31377
2283.51612	0.31550
2281.58748	0.31500
2279.65883	0.31138
2277.73018	0.30481
2275.80154	0.29672
2273.87289	0.28943
2271.94425	0.28534
2270.01560	0.28591
2268.08696	0.29107
2266.15831	0.29940
2264.22967	0.30862
2262.30102	0.31626
2260.37238	0.32029
2258.44373	0.31991
2256.51509	0.31549
2254.58644	0.30791
2252.65779	0.29844
2250.72915	0.28900
2248.80050	0.28191
2246.87186	0.27900
2244.94321	0.28100
2243.01457	0.28773
2241.08592	0.29761
2239.15728	0.30729
2237.22863	0.31301
2235.29999	0.31234
2233.37134	0.30476
2231.44270	0.29102
2229.51405	0.27311
2227.58541	0.25458
2225.65676	0.23923
2223.72811	0.22937
2221.79947	0.22583
2219.87082	0.22882
2217.94218	0.23760
2216.01353	0.24954
2214.08489	0.26070
2212.15624	0.26744
2210.22760	0.26679
2208.29895	0.25701
2206.37031	0.23959
2204.44166	0.22031
2202.51302	0.20659
2200.58437	0.20326
2198.65572	0.21074
2196.72708	0.22540
2194.79843	0.24055
2192.86979	0.24935
2190.94114	0.24898
2189.01250	0.24209
2187.08385	0.23385
2185.15521	0.22801
2183.22656	0.22528
2181.29792	0.22365
2179.36927	0.21998
2177.44063	0.21292
2175.51198	0.20523
2173.58333	0.20154
2171.65469	0.20260
2169.72604	0.20217
2167.79740	0.19028
2165.86875	0.16006
2163.94011	0.11301
2162.01146	0.06031
2160.08282	0.01849
2158.15417	0.00000
2156.22553	0.00542
2154.29688	0.02460
2152.36824	0.04574
2150.43959	0.06291
2148.51094	0.07762
2146.58230	0.09617
2144.65365	0.12411
2142.72501	0.16036
2140.79636	0.19685
2138.86772	0.22501
2136.93907	0.24165
2135.01043	0.24841
2133.08178	0.24879
2131.15314	0.24710
2129.22449	0.24707
2127.29585	0.24956
2125.36720	0.25286
2123.43856	0.25573
2121.50991	0.25827
2119.58126	0.25976
2117.65262	0.25847
2115.72397	0.25422
2113.79533	0.24902
2111.86668	0.24499
2109.93804	0.24315
2108.00939	0.24396
2106.08075	0.24744
2104.15210	0.25230
2102.22346	0.25637
2100.29481	0.25825
2098.36617	0.25786
2096.43752	0.25575
2094.50887	0.25256
2092.58023	0.24910
2090.65158	0.24637
2088.72294	0.24517
2086.79429	0.24592
2084.86565	0.24849
2082.93700	0.25224
2081.00836	0.25616
2079.07971	0.25914
2077.15107	0.26043
2075.22242	0.25994
2073.29378	0.25818
2071.36513	0.25591
2069.43648	0.25352
2067.50784	0.25076
2065.57919	0.24720
2063.65055	0.24278
2061.72190	0.23806
2059.79326	0.23386
2057.86461	0.23062
2055.93597	0.22788
2054.00732	0.22418
2052.07868	0.21774
2050.15003	0.20761
2048.22139	0.19440
2046.29274	0.17992
2044.36409	0.16621
2042.43545	0.15471
2040.50680	0.14599
2038.57816	0.14028
2036.64951	0.13833
2034.72087	0.14167
2032.79222	0.15120
2030.86358	0.16534
2028.93493	0.17995
2027.00629	0.19000
2025.07764	0.19182
2023.14900	0.18514
2021.22035	0.17377
2019.29170	0.16396
2017.36306	0.16114
2015.43441	0.16737
2013.50577	0.18109
2011.57712	0.19805
2009.64848	0.21358
2007.71983	0.22474
2005.79119	0.23063
2003.86254	0.23263
2001.93390	0.23341
2000.00525	0.23561
1998.07661	0.24067
1996.14796	0.24780
1994.21932	0.25395
1992.29067	0.25512
1990.36202	0.24839
1988.43338	0.23335
1986.50473	0.21235
1984.57609	0.18974
1982.64744	0.17068
1980.71880	0.15976
1978.79015	0.15960
1976.86151	0.17010
1974.93286	0.18868
1973.00422	0.21108
1971.07557	0.23251
1969.14693	0.24906
1967.21828	0.25915
1965.28963	0.26402
1963.36099	0.26645
1961.43234	0.26865
1959.50370	0.27104
1957.57505	0.27254
1955.64641	0.27172
1953.71776	0.26803
1951.78912	0.26254
1949.86047	0.25766
1947.93183	0.25570
1946.00318	0.25749
1944.07454	0.26216
1942.14589	0.26803
1940.21724	0.27359
1938.28860	0.27795
1936.35995	0.28090
1934.43131	0.28266
1932.50266	0.28342
1930.57402	0.28304
1928.64537	0.28132
1926.71673	0.27828
1924.78808	0.27432
1922.85944	0.27007
1920.93079	0.26619
1919.00215	0.26319
1917.07350	0.26138
1915.14485	0.26080
1913.21621	0.26121
1911.28756	0.26211
1909.35892	0.26287
1907.43027	0.26302
1905.50163	0.26250
1903.57298	0.26175
1901.64434	0.26158
1899.71569	0.26290
1897.78705	0.26609
1895.85840	0.27058
1893.92976	0.27497
1892.00111	0.27774
1890.07246	0.27806
1888.14382	0.27606
1886.21517	0.27285
1884.28653	0.26996
1882.35788	0.26866
1880.42924	0.26920
1878.50059	0.27081
1876.57195	0.27216
1874.64330	0.27202
1872.71466	0.26987
1870.78601	0.26617
1868.85737	0.26217
1866.92872	0.25927
1865.00008	0.25827
1863.07143	0.25914
1861.14278	0.26105
1859.21414	0.26295
1857.28549	0.26403
1855.35685	0.26411
1853.42820	0.26349
1851.49956	0.26255
1849.57091	0.26149
1847.64227	0.26029
1845.71362	0.25886
1843.78498	0.25720
1841.85633	0.25555
1839.92769	0.25420
1837.99904	0.25337
1836.07039	0.25314
1834.14175	0.25342
1832.21310	0.25407
1830.28446	0.25487
1828.35581	0.25558
1826.42717	0.25589
1824.49852	0.25553
1822.56988	0.25445
1820.64123	0.25289
1818.71259	0.25140
1816.78394	0.25053
1814.85530	0.25063
1812.92665	0.25166
1810.99800	0.25319
1809.06936	0.25467
1807.14071	0.25572
1805.21207	0.25632
1803.28342	0.25684
1801.35478	0.25772
1799.42613	0.25920
1797.49749	0.26110
1795.56884	0.26290
1793.64020	0.26395
1791.71155	0.26383
1789.78291	0.26256
1787.85426	0.26062
1785.92561	0.25875
1783.99697	0.25773
1782.06832	0.25813
1780.13968	0.26016
1778.21103	0.26361
1776.28239	0.26791
1774.35374	0.27222
1772.42510	0.27570
1770.49645	0.27779
1768.56781	0.27848
1766.63916	0.27831
1764.71052	0.27823
1762.78187	0.27919
1760.85322	0.28186
1758.92458	0.28639
1756.99593	0.29239
1755.06729	0.29909
1753.13864	0.30566
1751.21000	0.31148
1749.28135	0.31641
1747.35271	0.32093
1745.42406	0.32601
1743.49542	0.33269
1741.56677	0.34141
1739.63813	0.35173
1737.70948	0.36233
1735.78084	0.37145
1733.85219	0.37759
1731.92354	0.38022
1729.99490	0.38018
1728.06625	0.37931
1726.13761	0.37955
1724.20896	0.38209
1722.28032	0.38693
1720.35167	0.39299
1718.42303	0.39866
1716.49438	0.40274
1714.56574	0.40516
1712.63709	0.40719
1710.70845	0.41082
1708.77980	0.41791
1706.85115	0.42944
1704.92251	0.44507
1702.99386	0.46321
1701.06522	0.48166
1699.13657	0.49855
1697.20793	0.51323
1695.27928	0.52650
1693.35064	0.54000
1691.42199	0.55531
1689.49335	0.57308
1687.56470	0.59279
1685.63606	0.61316
1683.70741	0.63293
1681.77876	0.65183
1679.85012	0.67066
1677.92147	0.69071
1675.99283	0.71284
1674.06418	0.73703
1672.13554	0.76242
1670.20689	0.78774
1668.27825	0.81191
1666.34960	0.83476
1664.42096	0.85706
1662.49231	0.87987
1660.56367	0.90386
1658.63502	0.92891
1656.70637	0.95396
1654.77773	0.97713
1652.84908	0.99632
1650.92044	1.01021
1648.99179	1.01889
1647.06315	1.02370
1645.13450	1.02662
1643.20586	1.02950
1641.27721	1.03332
1639.34857	1.03766
1637.41992	1.04083
1635.49128	1.04072
1633.56263	1.03573
1631.63399	1.02522
1629.70534	1.00969
1627.77669	0.99042
1625.84805	0.96903
1623.91940	0.94688
1621.99076	0.92480
1620.06211	0.90307
1618.13347	0.88168
1616.20482	0.86058
1614.27618	0.83998
1612.34753	0.82045
1610.41889	0.80272
1608.49024	0.78742
1606.56160	0.77480
1604.63295	0.76462
1602.70430	0.75626
1600.77566	0.74885
1598.84701	0.74165
1596.91837	0.73419
1594.98972	0.72627
1593.06108	0.71788
1591.13243	0.70925
1589.20379	0.70084
1587.27514	0.69336
1585.34650	0.68756
1583.41785	0.68393
1581.48921	0.68248
1579.56056	0.68269
1577.63191	0.68359
1575.70327	0.68415
1573.77462	0.68390
1571.84598	0.68335
1569.91733	0.68383
1567.98869	0.68677
1566.06004	0.69290
1564.13140	0.70163
1562.20275	0.71095
1560.27411	0.71801
1558.34546	0.72036
1556.41682	0.71722
1554.48817	0.70988
1552.55952	0.70114
1550.63088	0.69399
1548.70223	0.69027
1546.77359	0.68985
1544.84494	0.69071
1542.91630	0.68986
1540.98765	0.68471
1539.05901	0.67421
1537.13036	0.65920
1535.20172	0.64198
1533.27307	0.62535
1531.34443	0.61169
1529.41578	0.60221
1527.48713	0.59672
1525.55849	0.59375
1523.62984	0.59118
1521.70120	0.58702
1519.77255	0.58009
1517.84391	0.57043
1515.91526	0.55900
1513.98662	0.54697
1512.05797	0.53510
1510.12933	0.52335
1508.20068	0.51101
1506.27204	0.49727
1504.34339	0.48193
1502.41475	0.46570
1500.48610	0.44984
1498.55745	0.43543
1496.62881	0.42297
1494.70016	0.41232
1492.77152	0.40295
1490.84287	0.39426
1488.91423	0.38604
1486.98558	0.37868
1485.05694	0.37320
1483.12829	0.37096
1481.19965	0.37321
1479.27100	0.38068
1477.34236	0.39323
1475.41371	0.40959
1473.48506	0.42758
1471.55642	0.44479
1469.62777	0.45945
1467.69913	0.47094
1465.77048	0.47958
1463.84184	0.48609
1461.91319	0.49105
1459.98455	0.49443
1458.05590	0.49556
1456.12726	0.49370
1454.19861	0.48871
1452.26997	0.48131
1450.34132	0.47283
1448.41267	0.46476
1446.48403	0.45828
1444.55538	0.45399
1442.62674	0.45187
1440.69809	0.45145
1438.76945	0.45208
1436.84080	0.45320
1434.91216	0.45447
1432.98351	0.45592
1431.05487	0.45795
1429.12622	0.46106
1427.19758	0.46559
1425.26893	0.47149
1423.34028	0.47826
1421.41164	0.48510
1419.48299	0.49120
1417.55435	0.49608
1415.62570	0.49971
1413.69706	0.50237
1411.76841	0.50447
1409.83977	0.50639
1407.91112	0.50839
1405.98248	0.51056
1404.05383	0.51284
1402.12519	0.51506
1400.19654	0.51696
1398.26789	0.51827
1396.33925	0.51872
1394.41060	0.51813
1392.48196	0.51654
1390.55331	0.51421
1388.62467	0.51153
1386.69602	0.50895
1384.76738	0.50684
1382.83873	0.50530
1380.91009	0.50398
1378.98144	0.50220
1377.05280	0.49910
1375.12415	0.49402
1373.19551	0.48678
1371.26686	0.47774
1369.33821	0.46767
1367.40957	0.45739
1365.48092	0.44756
1363.55228	0.43856
1361.62363	0.43054
1359.69499	0.42354
1357.76634	0.41752
1355.83770	0.41235
1353.90905	0.40787
1351.98041	0.40387
1350.05176	0.40025
1348.12312	0.39701
1346.19447	0.39425
1344.26582	0.39202
1342.33718	0.39023
1340.40853	0.38868
1338.47989	0.38713
1336.55124	0.38544
1334.62260	0.38363
1332.69395	0.38188
1330.76531	0.38043
1328.83666	0.37945
1326.90802	0.37894
1324.97937	0.37876
1323.05073	0.37869
1321.12208	0.37847
1319.19343	0.37797
1317.26479	0.37721
1315.33614	0.37632
1313.40750	0.37547
1311.47885	0.37477
1309.55021	0.37425
1307.62156	0.37385
1305.69292	0.37351
1303.76427	0.37320
1301.83563	0.37304
1299.90698	0.37323
1297.97834	0.37397
1296.04969	0.37539
1294.12104	0.37748
1292.19240	0.38009
1290.26375	0.38300
1288.33511	0.38601
1286.40646	0.38900
1284.47782	0.39206
1282.54917	0.39534
1280.62053	0.39902
1278.69188	0.40320
1276.76324	0.40783
1274.83459	0.41274
1272.90595	0.41773
1270.97730	0.42262
1269.04866	0.42737
1267.12001	0.43205
1265.19136	0.43683
1263.26272	0.44186
1261.33407	0.44715
1259.40543	0.45262
1257.47678	0.45811
1255.54814	0.46355
1253.61949	0.46903
1251.69085	0.47486
1249.76220	0.48149
1247.83356	0.48935
1245.90491	0.49870
1243.97627	0.50952
1242.04762	0.52150
1240.11897	0.53410
1238.19033	0.54668
1236.26168	0.55864
1234.33304	0.56956
1232.40439	0.57930
1230.47575	0.58797
1228.54710	0.59588
1226.61846	0.60342
1224.68981	0.61097
1222.76117	0.61871
1220.83252	0.62656
1218.90388	0.63422
1216.97523	0.64133
1215.04658	0.64760
1213.11794	0.65291
1211.18929	0.65745
1209.26065	0.66167
1207.33200	0.66612
1205.40336	0.67125
1203.47471	0.67734
1201.54607	0.68449
1199.61742	0.69254
1197.68878	0.70121
1195.76013	0.71025
1193.83149	0.71970
1191.90284	0.72981
1189.97419	0.74079
1188.04555	0.75269
1186.11690	0.76533
1184.18826	0.77838
1182.25961	0.79155
1180.33097	0.80483
1178.40232	0.81860
1176.47368	0.83350
1174.54503	0.84988
1172.61639	0.86767
1170.68774	0.88648
1168.75910	0.90571
1166.83045	0.92476
1164.90180	0.94309
1162.97316	0.96035
1161.04451	0.97638
1159.11587	0.99137
1157.18722	1.00582
1155.25858	1.02039
1153.32993	1.03578
1151.40129	1.05245
1149.47264	1.07055
1147.54400	1.08989
1145.61535	1.11041
1143.68671	1.13238
1141.75806	1.15617
1139.82942	1.18192
1137.90077	1.20943
1135.97212	1.23811
1134.04348	1.26713
1132.11483	1.29578
1130.18619	1.32384
1128.25754	1.35150
1126.32890	1.37891
1124.40025	1.40595
1122.47161	1.43221
1120.54296	1.45705
1118.61432	1.47993
1116.68567	1.50083
1114.75703	1.52061
1112.82838	1.54065
1110.89973	1.56235
1108.97109	1.58667
1107.04244	1.61388
1105.11380	1.64337
1103.18515	1.67397
1101.25651	1.70449
1099.32786	1.73430
1097.39922	1.76331
1095.47057	1.79162
1093.54193	1.81928
1091.61328	1.84622
1089.68464	1.87219
1087.75599	1.89680
1085.82734	1.91975
1083.89870	1.94083
1081.97005	1.95976
1080.04141	1.97589
1078.11276	1.98834
1076.18412	1.99642
1074.25547	2.00000
1072.32683	1.99954
1070.39818	1.99572
1068.46954	1.98908
1066.54089	1.97994
1064.61225	1.96841
1062.68360	1.95453
1060.75495	1.93859
1058.82631	1.92142
1056.89766	1.90403
1054.96902	1.88722
1053.04037	1.87138
1051.11173	1.85687
1049.18308	1.84419
1047.25444	1.83396
1045.32579	1.82680
1043.39715	1.82303
1041.46850	1.82237
1039.53986	1.82374
1037.61121	1.82551
1035.68256	1.82588
1033.75392	1.82314
1031.82527	1.81601
1029.89663	1.80383
1027.96798	1.78671
1026.03934	1.76527
1024.11069	1.74074
1022.18205	1.71474
1020.25340	1.68884
1018.32476	1.66405
1016.39611	1.64074
1014.46747	1.61886
1012.53882	1.59790
1010.61018	1.57715
1008.68153	1.55611
1006.75288	1.53465
1004.82424	1.51283
1002.89559	1.49090
1000.96695	1.46948
999.03830	1.44942
997.10966	1.43149
995.18101	1.41607
993.25237	1.40290
991.32372	1.39085
989.39508	1.37807
987.46643	1.36263
985.53779	1.34312
983.60914	1.31885
981.68049	1.28976
979.75185	1.25632
977.82320	1.21936
975.89456	1.17979
973.96591	1.13842
972.03727	1.09610
970.10862	1.05378
968.17998	1.01234
966.25133	0.97245
964.32269	0.93478
962.39404	0.89997
960.46540	0.86849
958.53675	0.84046
956.60810	0.81558
954.67946	0.79327
952.75081	0.77277
950.82217	0.75343
948.89352	0.73495
946.96488	0.71757
945.03623	0.70196
943.10759	0.68891
941.17894	0.67874
939.25030	0.67089
937.32165	0.66413
935.39301	0.65712
933.46436	0.64891
931.53571	0.63930
929.60707	0.62895
927.67842	0.61904
925.74978	0.61060
923.82113	0.60425
921.89249	0.60009
919.96384	0.59767
918.03520	0.59592
916.10655	0.59364
914.17791	0.58980
912.24926	0.58351
910.32062	0.57420
908.39197	0.56202
906.46333	0.54782
904.53468	0.53251
902.60603	0.51685
900.67739	0.50169
898.74874	0.48814
896.82010	0.47691
894.89145	0.46783
892.96281	0.46002
891.03416	0.45229
889.10552	0.44338
887.17687	0.43249
885.24823	0.42026
883.31958	0.40864
881.39094	0.39959
879.46229	0.39388
877.53364	0.39094
875.60500	0.38930
873.67635	0.38722
871.74771	0.38363
869.81906	0.37874
867.89042	0.37342
865.96177	0.36817
864.03313	0.36291
862.10448	0.35739
860.17584	0.35155
858.24719	0.34570
856.31855	0.34071
854.38990	0.33762
852.46125	0.33680
850.53261	0.33764
848.60396	0.33911
846.67532	0.34042
844.74667	0.34129
842.81803	0.34209
840.88938	0.34362
838.96074	0.34659
837.03209	0.35101
835.10345	0.35613
833.17480	0.36095
831.24616	0.36480
829.31751	0.36760
827.38886	0.36976
825.46022	0.37169
823.53157	0.37360
821.60293	0.37544
819.67428	0.37712
817.74564	0.37900
815.81699	0.38239
813.88835	0.38922
811.95970	0.40105
810.03106	0.41795
808.10241	0.43849
806.17377	0.46017
804.24512	0.47996
802.31647	0.49522
800.38783	0.50446
798.45918	0.50748
796.53054	0.50484
794.60189	0.49776
792.67325	0.48812
790.74460	0.47848
788.81596	0.47143
786.88731	0.46855
784.95867	0.46957
783.03002	0.47236
781.10138	0.47403
779.17273	0.47221
777.24409	0.46605
775.31544	0.45661
773.38679	0.44627
771.45815	0.43721
769.52950	0.43049
767.60086	0.42622
765.67221	0.42414
763.74357	0.42385
761.81492	0.42482
759.88628	0.42637
757.95763	0.42757
756.02899	0.42741
754.10034	0.42560
752.17170	0.42289
750.24305	0.42061
748.31440	0.41977
746.38576	0.42058
744.45711	0.42224
742.52847	0.42315
740.59982	0.42199
738.67118	0.41891
736.74253	0.41541
734.81389	0.41323
732.88524	0.41339
730.95660	0.41603
729.02795	0.42035
727.09931	0.42487
725.17066	0.42812
723.24201	0.42942
721.31337	0.42886
719.38472	0.42702
717.45608	0.42472
715.52743	0.42300
713.59879	0.42285
711.67014	0.42479
709.74150	0.42885
707.81285	0.43470
705.88421	0.44173
703.95556	0.44930
702.02692	0.45664
700.09827	0.46295
698.16962	0.46747
696.24098	0.46972
694.31233	0.46974
692.38369	0.46812
690.45504	0.46586
688.52640	0.46388
686.59775	0.46252
684.66911	0.46147
682.74046	0.46005
680.81182	0.45797
678.88317	0.45573
676.95453	0.45418
675.02588	0.45395
673.09723	0.45507
671.16859	0.45694
669.23994	0.45850
667.31130	0.45884
665.38265	0.45787
663.45401	0.45629
661.52536	0.45468
659.59672	0.45311
657.66807	0.45138
655.73943	0.44943
653.81078	0.44765
651.88214	0.44695
649.95349	0.44838
648.02485	0.45248
646.09620	0.45856
644.16755	0.46486
642.23891	0.46920
640.31026	0.47001
638.38162	0.46712
636.45297	0.46202
634.52433	0.45749
632.59568	0.45655
630.66704	0.46082
628.73839	0.46860
626.80975	0.47441
624.88110	0.47147
622.95246	0.45571
621.02381	0.42901
619.09516	0.39990
617.16652	0.38086
615.23787	0.38258
613.30923	0.40788
611.38058	0.44967
609.45194	0.49475
607.52329	0.53024
605.59465	0.54881
603.66600	0.55069
601.73736	0.54204
599.80871	0.53087
597.88007	0.52319
595.95142	0.52174
594.02277	0.52679
592.09413	0.53745
590.16548	0.55236
588.23684	0.56973
586.30819	0.58744
584.37955	0.60335
582.45090	0.61610
580.52226	0.62582
578.59361	0.63416
576.66497	0.64342
574.73632	0.65544
572.80768	0.67069
570.87903	0.68823
568.95038	0.70637
567.02174	0.72377
565.09309	0.74005
563.16445	0.75582
561.23580	0.77204
559.30716	0.78939
557.37851	0.80775
555.44987	0.82634
553.52122	0.84429
551.59258	0.86130
549.66393	0.87782
547.73529	0.89486
545.80664	0.91352
543.87800	0.93461
541.94935	0.95836
540.02070	0.98445
538.09206	1.01183
536.16341	1.03864
534.23477	1.06234
532.30612	1.08036
530.37748	1.09070
528.44883	1.09260
526.52019	1.08696
524.59154	1.07611
522.66290	1.06277
520.73425	1.04886
518.80561	1.03485
516.87696	1.01998
514.94831	1.00296
513.01967	0.98292
511.09102	0.96017
509.16238	0.93646
507.23373	0.91442
505.30509	0.89661
503.37644	0.88485
501.44780	0.87993
499.51915	0.88169
497.59051	0.88932
495.66186	0.90195
493.73322	0.91917
491.80457	0.94136
489.87592	0.96964
487.94728	1.00557
486.01863	1.05050
484.08999	1.10476
482.16134	1.16695
480.23270	1.23369
478.30405	1.30006
476.37541	1.36066
474.44676	1.41082
472.51812	1.44747
470.58947	1.46937
468.66083	1.47684
466.73218	1.47116
464.80353	1.45385
462.87489	1.42629
460.94624	1.38989
459.01760	1.34635
457.08895	1.29790
455.16031	1.24726
453.23166	1.19752
451.30302	1.15149
449.37437	1.11109
447.44573	1.07690
445.51708	1.04824
443.58844	1.02358
441.65979	1.00118
439.73114	0.97989
437.80250	0.95969
435.87385	0.94169
433.94521	0.92740
432.01656	0.91799
430.08792	0.91355
428.15927	0.91267
426.23063	0.91245
424.30198	0.90930
422.37334	0.90009
420.44469	0.88314
418.51605	0.85869
416.58740	0.82883
414.65876	0.79698
412.73011	0.76694
410.80146	0.74206
408.87282	0.72465
406.94417	0.71539
405.01553	0.71297
403.08688	0.71416
401.15824	0.71436
399.22959	0.70871
397.30095	0.69378
395.37230	0.66899
393.44366	0.63688
391.51501	0.60209
389.58637	0.56972
387.65772	0.54384
385.72907	0.52659
383.80043	0.51803
381.87178	0.51674
379.94314	0.52044
378.01449	0.52639
376.08585	0.53140
374.15720	0.53223
372.22856	0.52642
370.29991	0.51329
368.37127	0.49440
366.44262	0.47325
364.51398	0.45434
362.58533	0.44166
360.65668	0.43712
358.72804	0.43958
356.79939	0.44539
354.87075	0.44975
352.94210	0.44839
351.01346	0.43901
349.08481	0.42189
347.15617	0.39961
345.22752	0.37567
343.29888	0.35299
341.37023	0.33317
339.44159	0.31683
337.51294	0.30449
335.58429	0.29694
333.65565	0.29513
331.72700	0.29925
329.79836	0.30756
327.86971	0.31598
325.94107	0.31908
324.01242	0.31220
322.08378	0.29353
320.15513	0.26515
318.22649	0.23244
316.29784	0.20231
314.36920	0.18090
312.44055	0.17176
310.51190	0.17455
308.58326	0.18503
306.65461	0.19750
304.72597	0.20677
302.79732	0.20998
300.86868	0.20744
298.94003	0.20201
297.01139	0.19726
295.08274	0.19567
293.15410	0.19786
291.22545	0.20297
289.29681	0.20962
287.36816	0.21656
285.43952	0.22253
283.51087	0.22584
281.58222	0.22446
279.65358	0.21680
277.72493	0.20298
275.79629	0.18573
273.86764	0.17010
271.93900	0.16147
270.01035	0.16280
268.08171	0.17294
266.15306	0.18737
264.22442	0.20056
262.29577	0.20883
260.36713	0.21217
258.43848	0.21389
256.50983	0.21789
254.58119	0.22527
252.65254	0.23282
250.72390	0.23455
248.79525	0.22507
246.86661	0.20280
244.93796	0.17179
243.00932	0.14052
241.08067	0.11829
239.15203	0.11153
237.22338	0.12198
235.29474	0.14663
233.36609	0.17882
231.43744	0.21018
229.50880	0.23332
227.58015	0.24366
225.65151	0.24011
223.72286	0.22500
221.79422	0.20317
219.86557	0.18020
217.93693	0.16062
216.00828	0.14751
214.07964	0.14322
212.15099	0.14974
210.22235	0.16794
208.29370	0.19657
206.36505	0.23183
204.43641	0.26813
202.50776	0.29959
200.57912	0.32191
198.65047	0.33322
196.72183	0.33339
194.79318	0.32325
192.86454	0.30488
190.93589	0.28250
189.00725	0.26224
187.07860	0.25001
185.14996	0.24882
183.22131	0.25672
181.29267	0.26660
179.36402	0.26901
177.43537	0.25711
175.50673	0.23043
173.57808	0.19464
171.64944	0.15813
169.72079	0.12885
167.79215	0.11258
165.86350	0.11225
163.93486	0.12786
162.00621	0.16052
160.07757	0.19998
158.14892	0.23796
156.22028	0.26807
154.29163	0.26807
152.36298	0.26807
150.43434	0.26807
148.50569	0.26807
