4497.60101	0.11319
4495.67236	0.11319
4493.74372	0.11319
4491.81507	0.11319
4489.88643	0.11319
4487.95778	0.10886
4486.02914	0.10211
4484.10049	0.09364
4482.17185	0.08512
4480.24320	0.07923
4478.31455	0.07778
4476.38591	0.08173
4474.45726	0.09078
4472.52862	0.10318
4470.59997	0.11571
4468.67133	0.12465
4466.74268	0.12759
4464.81404	0.12447
4462.88539	0.11743
4460.95675	0.11001
4459.02810	0.10577
4457.09946	0.10616
4455.17081	0.10977
4453.24216	0.11380
4451.31352	0.11610
4449.38487	0.11595
4447.45623	0.11400
4445.52758	0.11158
4443.59894	0.10929
4441.67029	0.10627
4439.74165	0.10135
4437.81300	0.09449
4435.88436	0.08699
4433.95571	0.08100
4432.02707	0.07867
4430.09842	0.08085
4428.16978	0.08631
4426.24113	0.09280
4424.31248	0.09848
4422.38384	0.10218
4420.45519	0.10358
4418.52655	0.10367
4416.59790	0.10411
4414.66926	0.10575
4412.74061	0.10863
4410.81197	0.11288
4408.88332	0.11844
4406.95468	0.12402
4405.02603	0.12744
4403.09739	0.12678
4401.16874	0.12073
4399.24009	0.10879
4397.31145	0.09229
4395.38280	0.07507
4393.45416	0.06176
4391.52551	0.05529
4389.59687	0.05596
4387.66822	0.06210
4385.73958	0.07119
4383.81093	0.08061
4381.88229	0.08860
4379.95364	0.09504
4378.02500	0.10054
4376.09635	0.10546
4374.16770	0.10996
4372.23906	0.11431
4370.31041	0.11866
4368.38177	0.12238
4366.45312	0.12388
4364.52448	0.12123
4362.59583	0.11336
4360.66719	0.10173
4358.73854	0.09066
4356.80990	0.08505
4354.88125	0.08719
4352.95261	0.09530
4351.02396	0.10421
4349.09531	0.10790
4347.16667	0.10338
4345.23802	0.09340
4343.30938	0.08503
4341.38073	0.08445
4339.45209	0.09285
4337.52344	0.10654
4335.59480	0.11940
4333.66615	0.12579
4331.73751	0.12350
4329.80886	0.11456
4327.88022	0.10296
4325.95157	0.09160
4324.02292	0.08132
4322.09428	0.07246
4320.16563	0.06612
4318.23699	0.06417
4316.30834	0.06830
4314.37970	0.07826
4312.45105	0.09106
4310.52241	0.10243
4308.59376	0.10879
4306.66512	0.10869
4304.73647	0.10349
4302.80783	0.09686
4300.87918	0.09242
4298.95054	0.09147
4297.02189	0.09278
4295.09324	0.09424
4293.16460	0.09406
4291.23595	0.09119
4289.30731	0.08617
4287.37866	0.08135
4285.45002	0.07914
4283.52137	0.08022
4281.59273	0.08348
4279.66408	0.08725
4277.73544	0.09017
4275.80679	0.09147
4273.87815	0.09131
4271.94950	0.09054
4270.02085	0.08977
4268.09221	0.08857
4266.16356	0.08572
4264.23492	0.08062
4262.30627	0.07429
4260.37763	0.06867
4258.44898	0.06543
4256.52034	0.06557
4254.59169	0.06936
4252.66305	0.07572
4250.73440	0.08200
4248.80576	0.08568
4246.87711	0.08557
4244.94846	0.08165
4243.01982	0.07512
4241.09117	0.06871
4239.16253	0.06542
4237.23388	0.06637
4235.30524	0.07007
4233.37659	0.07375
4231.44795	0.07537
4229.51930	0.07483
4227.59066	0.07439
4225.66201	0.07726
4223.73337	0.08512
4221.80472	0.09659
4219.87607	0.10790
4217.94743	0.11503
4216.01878	0.11606
4214.09014	0.11187
4212.16149	0.10532
4210.23285	0.09952
4208.30420	0.09625
4206.37556	0.09543
4204.44691	0.09603
4202.51827	0.09727
4200.58962	0.09911
4198.66098	0.10150
4196.73233	0.10350
4194.80368	0.10338
4192.87504	0.09939
4190.94639	0.09059
4189.01775	0.07791
4187.08910	0.06475
4185.16046	0.05598
4183.23181	0.05515
4181.30317	0.06242
4179.37452	0.07499
4177.44588	0.08890
4175.51723	0.10028
4173.58859	0.10672
4171.65994	0.10833
4169.73130	0.10734
4167.80265	0.10624
4165.87400	0.10655
4163.94536	0.10855
4162.01671	0.11132
4160.08807	0.11312
4158.15942	0.11246
4156.23078	0.10894
4154.30213	0.10363
4152.37349	0.09890
4150.44484	0.09721
4148.51620	0.09917
4146.58755	0.10296
4144.65891	0.10586
4142.73026	0.10584
4140.80161	0.10190
4138.87297	0.09439
4136.94432	0.08538
4135.01568	0.07771
4133.08703	0.07321
4131.15839	0.07211
4129.22974	0.07377
4127.30110	0.07718
4125.37245	0.08076
4123.44381	0.08276
4121.51516	0.08275
4119.58652	0.08201
4117.65787	0.08209
4115.72922	0.08344
4113.80058	0.08576
4111.87193	0.08870
4109.94329	0.09166
4108.01464	0.09386
4106.08600	0.09517
4104.15735	0.09583
4102.22871	0.09516
4100.30006	0.09154
4098.37142	0.08445
4096.44277	0.07572
4094.51413	0.06851
4092.58548	0.06599
4090.65683	0.07042
4088.72819	0.08162
4086.79954	0.09616
4084.87090	0.10886
4082.94225	0.11554
4081.01361	0.11463
4079.08496	0.10736
4077.15632	0.09723
4075.22767	0.08842
4073.29903	0.08370
4071.37038	0.08374
4069.44174	0.08759
4067.51309	0.09311
4065.58444	0.09756
4063.65580	0.09905
4061.72715	0.09742
4059.79851	0.09334
4057.86986	0.08754
4055.94122	0.08103
4054.01257	0.07525
4052.08393	0.07139
4050.15528	0.06989
4048.22664	0.07079
4046.29799	0.07382
4044.36935	0.07802
4042.44070	0.08170
4040.51206	0.08356
4038.58341	0.08373
4036.65476	0.08366
4034.72612	0.08516
4032.79747	0.08953
4030.86883	0.09677
4028.94018	0.10520
4027.01154	0.11223
4025.08289	0.11568
4023.15425	0.11480
4021.22560	0.11036
4019.29696	0.10415
4017.36831	0.09837
4015.43967	0.09485
4013.51102	0.09456
4011.58237	0.09752
4009.65373	0.10301
4007.72508	0.10971
4005.79644	0.11606
4003.86779	0.12048
4001.93915	0.12182
4000.01050	0.11999
3998.08186	0.11632
3996.15321	0.11295
3994.22457	0.11184
3992.29592	0.11382
3990.36728	0.11804
3988.43863	0.12208
3986.50998	0.12301
3984.58134	0.11906
3982.65269	0.11069
3980.72405	0.10040
3978.79540	0.09136
3976.86676	0.08583
3974.93811	0.08407
3973.00947	0.08451
3971.08082	0.08476
3969.15218	0.08288
3967.22353	0.07841
3965.29489	0.07248
3963.36624	0.06712
3961.43759	0.06429
3959.50895	0.06516
3957.58030	0.06984
3955.65166	0.07744
3953.72301	0.08647
3951.79437	0.09530
3949.86572	0.10260
3947.93708	0.10752
3946.00843	0.10987
3944.07979	0.11014
3942.15114	0.10930
3940.22250	0.10836
3938.29385	0.10795
3936.36521	0.10812
3934.43656	0.10833
3932.50791	0.10751
3930.57927	0.10457
3928.65062	0.09888
3926.72198	0.09070
3924.79333	0.08136
3922.86469	0.07303
3920.93604	0.06819
3919.00740	0.06873
3917.07875	0.07503
3915.15011	0.08541
3913.22146	0.09639
3911.29282	0.10395
3909.36417	0.10523
3907.43552	0.09980
3905.50688	0.08972
3903.57823	0.07840
3901.64959	0.06903
3899.72094	0.06322
3897.79230	0.06076
3895.86365	0.06041
3893.93501	0.06109
3892.00636	0.06251
3890.07772	0.06499
3888.14907	0.06888
3886.22043	0.07402
3884.29178	0.07943
3882.36313	0.08358
3880.43449	0.08526
3878.50584	0.08418
3876.57720	0.08095
3874.64855	0.07670
3872.71991	0.07283
3870.79126	0.07051
3868.86262	0.07001
3866.93397	0.07034
3865.00533	0.06972
3863.07668	0.06638
3861.14804	0.05932
3859.21939	0.04899
3857.29074	0.03754
3855.36210	0.02832
3853.43345	0.02433
3851.50481	0.02663
3849.57616	0.03374
3847.64752	0.04238
3845.71887	0.04907
3843.79023	0.05166
3841.86158	0.05030
3839.93294	0.04713
3838.00429	0.04509
3836.07565	0.04634
3834.14700	0.05123
3832.21835	0.05843
3830.28971	0.06583
3828.36106	0.07145
3826.43242	0.07426
3824.50377	0.07436
3822.57513	0.07281
3820.64648	0.07089
3818.71784	0.06952
3816.78919	0.06901
3814.86055	0.06907
3812.93190	0.06889
3811.00326	0.06757
3809.07461	0.06464
3807.14597	0.06039
3805.21732	0.05589
3803.28867	0.05263
3801.36003	0.05221
3799.43138	0.05584
3797.50274	0.06371
3795.57409	0.07480
3793.64545	0.08722
3791.71680	0.09881
3789.78816	0.10766
3787.85951	0.11252
3785.93087	0.11315
3784.00222	0.11029
3782.07358	0.10531
3780.14493	0.09982
3778.21628	0.09533
3776.28764	0.09293
3774.35899	0.09297
3772.43035	0.09499
3770.50170	0.09794
3768.57306	0.10035
3766.64441	0.10075
3764.71577	0.09811
3762.78712	0.09214
3760.85848	0.08343
3758.92983	0.07324
3757.00119	0.06315
3755.07254	0.05472
3753.14389	0.04908
3751.21525	0.04678
3749.28660	0.04748
3747.35796	0.05001
3745.42931	0.05282
3743.50067	0.05452
3741.57202	0.05434
3739.64338	0.05260
3737.71473	0.05075
3735.78609	0.05073
3733.85744	0.05407
3731.92880	0.06102
3730.00015	0.07053
3728.07150	0.08071
3726.14286	0.08953
3724.21421	0.09523
3722.28557	0.09667
3720.35692	0.09351
3718.42828	0.08634
3716.49963	0.07660
3714.57099	0.06639
3712.64234	0.05809
3710.71370	0.05352
3708.78505	0.05325
3706.85641	0.05641
3704.92776	0.06139
3702.99911	0.06659
3701.07047	0.07108
3699.14182	0.07461
3697.21318	0.07753
3695.28453	0.08063
3693.35589	0.08486
3691.42724	0.09091
3689.49860	0.09876
3687.56995	0.10749
3685.64131	0.11556
3683.71266	0.12145
3681.78402	0.12462
3679.85537	0.12608
3677.92673	0.12810
3675.99808	0.13305
3674.06943	0.14202
3672.14079	0.15448
3670.21214	0.16876
3668.28350	0.18312
3666.35485	0.19639
3664.42621	0.20810
3662.49756	0.21803
3660.56892	0.22574
3658.64027	0.23053
3656.71163	0.23213
3654.78298	0.23128
3652.85434	0.22972
3650.92569	0.22966
3648.99704	0.23286
3647.06840	0.24004
3645.13975	0.25086
3643.21111	0.26443
3641.28246	0.27984
3639.35382	0.29627
3637.42517	0.31314
3635.49653	0.33002
3633.56788	0.34658
3631.63924	0.36264
3629.71059	0.37827
3627.78195	0.39375
3625.85330	0.40933
3623.92465	0.42495
3621.99601	0.44041
3620.06736	0.45566
3618.13872	0.47081
3616.21007	0.48607
3614.28143	0.50178
3612.35278	0.51836
3610.42414	0.53600
3608.49549	0.55440
3606.56685	0.57301
3604.63820	0.59147
3602.70956	0.60985
3600.78091	0.62848
3598.85226	0.64757
3596.92362	0.66683
3594.99497	0.68549
3593.06633	0.70274
3591.13768	0.71850
3589.20904	0.73387
3587.28039	0.75083
3585.35175	0.77092
3583.42310	0.79399
3581.49446	0.81797
3579.56581	0.84000
3577.63717	0.85806
3575.70852	0.87190
3573.77988	0.88304
3571.85123	0.89370
3569.92258	0.90542
3567.99394	0.91843
3566.06529	0.93207
3564.13665	0.94585
3562.20800	0.96002
3560.27936	0.97530
3558.35071	0.99211
3556.42207	1.01019
3554.49342	1.02863
3552.56478	1.04649
3550.63613	1.06345
3548.70749	1.07998
3546.77884	1.09675
3544.85019	1.11411
3542.92155	1.13186
3540.99290	1.14970
3539.06426	1.16764
3537.13561	1.18600
3535.20697	1.20512
3533.27832	1.22486
3531.34968	1.24447
3529.42103	1.26293
3527.49239	1.27965
3525.56374	1.29478
3523.63510	1.30891
3521.70645	1.32245
3519.77780	1.33527
3517.84916	1.34692
3515.92051	1.35708
3513.99187	1.36594
3512.06322	1.37446
3510.13458	1.38404
3508.20593	1.39583
3506.27729	1.41013
3504.34864	1.42637
3502.42000	1.44365
3500.49135	1.46109
3498.56271	1.47802
3496.63406	1.49414
3494.70541	1.50963
3492.77677	1.52497
3490.84812	1.54067
3488.91948	1.55697
3486.99083	1.57373
3485.06219	1.59022
3483.13354	1.60543
3481.20490	1.61860
3479.27625	1.62984
3477.34761	1.64018
3475.41896	1.65109
3473.49032	1.66363
3471.56167	1.67789
3469.63302	1.69297
3467.70438	1.70764
3465.77573	1.72119
3463.84709	1.73379
3461.91844	1.74617
3459.98980	1.75895
3458.06115	1.77216
3456.13251	1.78502
3454.20386	1.79627
3452.27522	1.80483
3450.34657	1.81045
3448.41793	1.81372
3446.48928	1.81586
3444.56064	1.81851
3442.63199	1.82329
3440.70334	1.83136
3438.77470	1.84287
3436.84605	1.85697
3434.91741	1.87200
3432.98876	1.88602
3431.06012	1.89742
3429.13147	1.90550
3427.20283	1.91071
3425.27418	1.91433
3423.34554	1.91772
3421.41689	1.92179
3419.48825	1.92676
3417.55960	1.93236
3415.63095	1.93806
3413.70231	1.94343
3411.77366	1.94822
3409.84502	1.95239
3407.91637	1.95594
3405.98773	1.95883
3404.05908	1.96101
3402.13044	1.96254
3400.20179	1.96365
3398.27315	1.96474
3396.34450	1.96631
3394.41586	1.96870
3392.48721	1.97206
3390.55856	1.97638
3388.62992	1.98140
3386.70127	1.98659
3384.77263	1.99129
3382.84398	1.99494
3380.91534	1.99720
3378.98669	1.99804
3377.05805	1.99782
3375.12940	1.99730
3373.20076	1.99727
3371.27211	1.99805
3369.34347	1.99927
3367.41482	2.00000
3365.48617	1.99912
3363.55753	1.99584
3361.62888	1.99014
3359.70024	1.98292
3357.77159	1.97559
3355.84295	1.96952
3353.91430	1.96557
3351.98566	1.96396
3350.05701	1.96436
3348.12837	1.96603
3346.19972	1.96808
3344.27108	1.96974
3342.34243	1.97058
3340.41378	1.97046
3338.48514	1.96951
3336.55649	1.96796
3334.62785	1.96605
3332.69920	1.96375
3330.77056	1.96089
3328.84191	1.95742
3326.91327	1.95363
3324.98462	1.95011
3323.05598	1.94743
3321.12733	1.94603
3319.19869	1.94590
3317.27004	1.94658
3315.34140	1.94742
3313.41275	1.94798
3311.48410	1.94827
3309.55546	1.94854
3307.62681	1.94905
3305.69817	1.94977
3303.76952	1.95025
3301.84088	1.94978
3299.91223	1.94792
3297.98359	1.94476
3296.05494	1.94094
3294.12630	1.93736
3292.19765	1.93485
3290.26901	1.93383
3288.34036	1.93403
3286.41171	1.93454
3284.48307	1.93412
3282.55442	1.93137
3280.62578	1.92503
3278.69713	1.91455
3276.76849	1.90062
3274.83984	1.88502
3272.91120	1.87008
3270.98255	1.85792
3269.05391	1.84972
3267.12526	1.84531
3265.19662	1.84330
3263.26797	1.84202
3261.33932	1.84017
3259.41068	1.83719
3257.48203	1.83309
3255.55339	1.82836
3253.62474	1.82355
3251.69610	1.81898
3249.76745	1.81459
3247.83881	1.81012
3245.91016	1.80509
3243.98152	1.79892
3242.05287	1.79128
3240.12423	1.78247
3238.19558	1.77334
3236.26693	1.76504
3234.33829	1.75848
3232.40964	1.75381
3230.48100	1.75012
3228.55235	1.74575
3226.62371	1.73912
3224.69506	1.72944
3222.76642	1.71701
3220.83777	1.70310
3218.90913	1.68960
3216.98048	1.67827
3215.05184	1.67010
3213.12319	1.66506
3211.19455	1.66229
3209.26590	1.66024
3207.33725	1.65708
3205.40861	1.65140
3203.47996	1.64290
3201.55132	1.63238
3199.62267	1.62132
3197.69403	1.61110
3195.76538	1.60235
3193.83674	1.59458
3191.90809	1.58636
3189.97945	1.57629
3188.05080	1.56397
3186.12216	1.55024
3184.19351	1.53667
3182.26486	1.52472
3180.33622	1.51495
3178.40757	1.50676
3176.47893	1.49869
3174.55028	1.48955
3172.62164	1.47921
3170.69299	1.46866
3168.76435	1.45937
3166.83570	1.45241
3164.90706	1.44777
3162.97841	1.44417
3161.04977	1.43966
3159.12112	1.43265
3157.19247	1.42262
3155.26383	1.41022
3153.33518	1.39677
3151.40654	1.38361
3149.47789	1.37159
3147.54925	1.36089
3145.62060	1.35131
3143.69196	1.34260
3141.76331	1.33467
3139.83467	1.32762
3137.90602	1.32150
3135.97738	1.31615
3134.04873	1.31101
3132.12008	1.30533
3130.19144	1.29857
3128.26279	1.29065
3126.33415	1.28195
3124.40550	1.27306
3122.47686	1.26462
3120.54821	1.25699
3118.61957	1.25015
3116.69092	1.24383
3114.76228	1.23785
3112.83363	1.23229
3110.90499	1.22721
3108.97634	1.22248
3107.04769	1.21782
3105.11905	1.21288
3103.19040	1.20748
3101.26176	1.20168
3099.33311	1.19585
3097.40447	1.19032
3095.47582	1.18508
3093.54718	1.17964
3091.61853	1.17336
3089.68989	1.16572
3087.76124	1.15669
3085.83260	1.14682
3083.90395	1.13725
3081.97531	1.12920
3080.04666	1.12359
3078.11801	1.12061
3076.18937	1.11967
3074.26072	1.11945
3072.33208	1.11823
3070.40343	1.11442
3068.47479	1.10718
3066.54614	1.09672
3064.61750	1.08416
3062.68885	1.07108
3060.76021	1.05892
3058.83156	1.04856
3056.90292	1.04013
3054.97427	1.03328
3053.04562	1.02752
3051.11698	1.02247
3049.18833	1.01778
3047.25969	1.01297
3045.33104	1.00744
3043.40240	1.00057
3041.47375	0.99215
3039.54511	0.98277
3037.61646	0.97379
3035.68782	0.96674
3033.75917	0.96255
3031.83053	0.96090
3029.90188	0.96028
3027.97323	0.95858
3026.04459	0.95420
3024.11594	0.94688
3022.18730	0.93784
3020.25865	0.92911
3018.33001	0.92247
3016.40136	0.91864
3014.47272	0.91697
3012.54407	0.91601
3010.61543	0.91445
3008.68678	0.91164
3006.75814	0.90764
3004.82949	0.90299
3002.90084	0.89849
3000.97220	0.89484
2999.04355	0.89242
2997.11491	0.89127
2995.18626	0.89106
2993.25762	0.89110
2991.32897	0.89058
2989.40033	0.88904
2987.47168	0.88671
2985.54304	0.88449
2983.61439	0.88340
2981.68575	0.88384
2979.75710	0.88529
2977.82845	0.88679
2975.89981	0.88785
2973.97116	0.88881
2972.04252	0.89064
2970.11387	0.89454
2968.18523	0.90103
2966.25658	0.90948
2964.32794	0.91847
2962.39929	0.92662
2960.47065	0.93297
2958.54200	0.93693
2956.61336	0.93834
2954.68471	0.93760
2952.75607	0.93531
2950.82742	0.93191
2948.89877	0.92809
2946.97013	0.92481
2945.04148	0.92277
2943.11284	0.92218
2941.18419	0.92323
2939.25555	0.92650
2937.32690	0.93236
2935.39826	0.94052
2933.46961	0.95020
2931.54097	0.96045
2929.61232	0.96998
2927.68368	0.97708
2925.75503	0.98025
2923.82638	0.97874
2921.89774	0.97237
2919.96909	0.96112
2918.04045	0.94506
2916.11180	0.92496
2914.18316	0.90245
2912.25451	0.87967
2910.32587	0.85869
2908.39722	0.84118
2906.46858	0.82790
2904.53993	0.81826
2902.61129	0.81063
2900.68264	0.80340
2898.75399	0.79591
2896.82535	0.78845
2894.89670	0.78135
2892.96806	0.77460
2891.03941	0.76799
2889.11077	0.76143
2887.18212	0.75506
2885.25348	0.74910
2883.32483	0.74383
2881.39619	0.73943
2879.46754	0.73579
2877.53890	0.73261
2875.61025	0.72990
2873.68160	0.72824
2871.75296	0.72826
2869.82431	0.72984
2867.89567	0.73189
2865.96702	0.73305
2864.03838	0.73264
2862.10973	0.73102
2860.18109	0.72924
2858.25244	0.72826
2856.32380	0.72821
2854.39515	0.72814
2852.46651	0.72614
2850.53786	0.72023
2848.60922	0.70957
2846.68057	0.69489
2844.75192	0.67792
2842.82328	0.66045
2840.89463	0.64401
2838.96599	0.62962
2837.03734	0.61760
2835.10870	0.60755
2833.18005	0.59896
2831.25141	0.59171
2829.32276	0.58589
2827.39412	0.58132
2825.46547	0.57742
2823.53683	0.57343
2821.60818	0.56857
2819.67953	0.56240
2817.75089	0.55530
2815.82224	0.54861
2813.89360	0.54398
2811.96495	0.54236
2810.03631	0.54341
2808.10766	0.54563
2806.17902	0.54697
2804.25037	0.54582
2802.32173	0.54159
2800.39308	0.53490
2798.46444	0.52730
2796.53579	0.52071
2794.60714	0.51647
2792.67850	0.51468
2790.74985	0.51463
2788.82121	0.51545
2786.89256	0.51635
2784.96392	0.51680
2783.03527	0.51670
2781.10663	0.51617
2779.17798	0.51493
2777.24934	0.51236
2775.32069	0.50812
2773.39205	0.50266
2771.46340	0.49693
2769.53475	0.49190
2767.60611	0.48810
2765.67746	0.48533
2763.74882	0.48282
2761.82017	0.47981
2759.89153	0.47624
2757.96288	0.47274
2756.03424	0.46994
2754.10559	0.46792
2752.17695	0.46640
2750.24830	0.46501
2748.31966	0.46327
2746.39101	0.46090
2744.46236	0.45817
2742.53372	0.45552
2740.60507	0.45294
2738.67643	0.45013
2736.74778	0.44717
2734.81914	0.44430
2732.89049	0.44163
2730.96185	0.43938
2729.03320	0.43808
2727.10456	0.43806
2725.17591	0.43901
2723.24727	0.44023
2721.31862	0.44076
2719.38998	0.43960
2717.46133	0.43635
2715.53268	0.43157
2713.60404	0.42640
2711.67539	0.42179
2709.74675	0.41821
2707.81810	0.41567
2705.88946	0.41367
2703.96081	0.41173
2702.03217	0.40992
2700.10352	0.40860
2698.17488	0.40774
2696.24623	0.40672
2694.31759	0.40495
2692.38894	0.40237
2690.46029	0.39938
2688.53165	0.39677
2686.60300	0.39535
2684.67436	0.39541
2682.74571	0.39629
2680.81707	0.39689
2678.88842	0.39653
2676.95978	0.39522
2675.03113	0.39334
2673.10249	0.39122
2671.17384	0.38901
2669.24520	0.38661
2667.31655	0.38386
2665.38790	0.38087
2663.45926	0.37799
2661.53061	0.37549
2659.60197	0.37334
2657.67332	0.37137
2655.74468	0.36951
2653.81603	0.36794
2651.88739	0.36708
2649.95874	0.36708
2648.03010	0.36728
2646.10145	0.36646
2644.17281	0.36389
2642.24416	0.35986
2640.31551	0.35520
2638.38687	0.35061
2636.45822	0.34654
2634.52958	0.34296
2632.60093	0.33929
2630.67229	0.33495
2628.74364	0.33027
2626.81500	0.32652
2624.88635	0.32467
2622.95771	0.32481
2621.02906	0.32652
2619.10042	0.32940
2617.17177	0.33303
2615.24312	0.33691
2613.31448	0.34039
2611.38583	0.34249
2609.45719	0.34194
2607.52854	0.33774
2605.59990	0.32973
2603.67125	0.31892
2601.74261	0.30764
2599.81396	0.29888
2597.88532	0.29489
2595.95667	0.29593
2594.02803	0.30053
2592.09938	0.30634
2590.17074	0.31074
2588.24209	0.31175
2586.31344	0.30915
2584.38480	0.30467
2582.45615	0.30095
2580.52751	0.30021
2578.59886	0.30341
2576.67022	0.30998
2574.74157	0.31810
2572.81293	0.32541
2570.88428	0.33010
2568.95564	0.33158
2567.02699	0.33063
2565.09835	0.32887
2563.16970	0.32734
2561.24105	0.32559
2559.31241	0.32237
2557.38376	0.31706
2555.45512	0.30981
2553.52647	0.30116
2551.59783	0.29234
2549.66918	0.28506
2547.74054	0.28016
2545.81189	0.27711
2543.88325	0.27549
2541.95460	0.27593
2540.02596	0.27902
2538.09731	0.28434
2536.16866	0.29095
2534.24002	0.29765
2532.31137	0.30250
2530.38273	0.30343
2528.45408	0.30015
2526.52544	0.29464
2524.59679	0.28931
2522.66815	0.28582
2520.73950	0.28513
2518.81086	0.28727
2516.88221	0.29071
2514.95357	0.29308
2513.02492	0.29291
2511.09627	0.29017
2509.16763	0.28546
2507.23898	0.27985
2505.31034	0.27509
2503.38169	0.27286
2501.45305	0.27401
2499.52440	0.27857
2497.59576	0.28574
2495.66711	0.29387
2493.73847	0.30107
2491.80982	0.30616
2489.88118	0.30878
2487.95253	0.30887
2486.02389	0.30718
2484.09524	0.30563
2482.16659	0.30624
2480.23795	0.30973
2478.30930	0.31519
2476.38066	0.32069
2474.45201	0.32365
2472.52337	0.32174
2470.59472	0.31468
2468.66608	0.30515
2466.73743	0.29718
2464.80879	0.29391
2462.88014	0.29635
2460.95150	0.30334
2459.02285	0.31185
2457.09420	0.31810
2455.16556	0.31961
2453.23691	0.31648
2451.30827	0.31057
2449.37962	0.30416
2447.45098	0.29925
2445.52233	0.29686
2443.59369	0.29637
2441.66504	0.29596
2439.73640	0.29401
2437.80775	0.29016
2435.87911	0.28545
2433.95046	0.28151
2432.02181	0.27973
2430.09317	0.28052
2428.16452	0.28310
2426.23588	0.28579
2424.30723	0.28653
2422.37859	0.28411
2420.44994	0.27949
2418.52130	0.27514
2416.59265	0.27320
2414.66401	0.27447
2412.73536	0.27895
2410.80672	0.28588
2408.87807	0.29339
2406.94942	0.29944
2405.02078	0.30328
2403.09213	0.30506
2401.16349	0.30443
2399.23484	0.30070
2397.30620	0.29412
2395.37755	0.28602
2393.44891	0.27814
2391.52026	0.27238
2389.59162	0.27038
2387.66297	0.27276
2385.73433	0.27845
2383.80568	0.28516
2381.87703	0.29051
2379.94839	0.29266
2378.01974	0.29099
2376.09110	0.28650
2374.16245	0.28164
2372.23381	0.27899
2370.30516	0.27951
2368.37652	0.28162
2366.44787	0.28157
2364.51923	0.27509
2362.59058	0.25980
2360.66194	0.23726
2358.73329	0.21331
2356.80465	0.19558
2354.87600	0.18994
2352.94735	0.19806
2351.01871	0.21734
2349.09006	0.24245
2347.16142	0.26732
2345.23277	0.28670
2343.30413	0.29737
2341.37548	0.29842
2339.44684	0.29097
2337.51819	0.27781
2335.58955	0.26297
2333.66090	0.25069
2331.73226	0.24397
2329.80361	0.24339
2327.87496	0.24740
2325.94632	0.25351
2324.01767	0.25969
2322.08903	0.26478
2320.16038	0.26821
2318.23174	0.26959
2316.30309	0.26873
2314.37445	0.26600
2312.44580	0.26250
2310.51716	0.25973
2308.58851	0.25893
2306.65987	0.26021
2304.73122	0.26207
2302.80257	0.26219
2300.87393	0.25906
2298.94528	0.25324
2297.01664	0.24711
2295.08799	0.24337
2293.15935	0.24347
2291.23070	0.24675
2289.30206	0.25091
2287.37341	0.25343
2285.44477	0.25317
2283.51612	0.25096
2281.58748	0.24868
2279.65883	0.24759
2277.73018	0.24723
2275.80154	0.24586
2273.87289	0.24193
2271.94425	0.23553
2270.01560	0.22873
2268.08696	0.22473
2266.15831	0.22609
2264.22967	0.23299
2262.30102	0.24292
2260.37238	0.25213
2258.44373	0.25758
2256.51509	0.25821
2254.58644	0.25455
2252.65779	0.24777
2250.72915	0.23884
2248.80050	0.22866
2246.87186	0.21866
2244.94321	0.21131
2243.01457	0.20992
2241.08592	0.21738
2239.15728	0.23340
2237.22863	0.25268
2235.29999	0.26742
2233.37134	0.27248
2231.44270	0.26823
2229.51405	0.25947
2227.58541	0.25317
2225.65676	0.25560
2223.72811	0.26766
2221.79947	0.28276
2219.87082	0.29167
2217.94218	0.28839
2216.01353	0.27122
2214.08489	0.24218
2212.15624	0.20687
2210.22760	0.17251
2208.29895	0.14453
2206.37031	0.12568
2204.44166	0.11680
2202.51302	0.11599
2200.58437	0.11865
2198.65572	0.12165
2196.72708	0.12540
2194.79843	0.13112
2192.86979	0.13912
2190.94114	0.14946
2189.01250	0.16037
2187.08385	0.16575
2185.15521	0.15942
2183.22656	0.14360
2181.29792	0.12977
2179.36927	0.12970
2177.44063	0.14893
2175.51198	0.18735
2173.58333	0.23697
2171.65469	0.27812
2169.72604	0.28799
2167.79740	0.25709
2165.86875	0.19405
2163.94011	0.11659
2162.01146	0.04518
2160.08282	0.00183
2158.15417	0.00000
2156.22553	0.03258
2154.29688	0.07727
2152.36824	0.11298
2150.43959	0.12838
2148.51094	0.12142
2146.58230	0.09928
2144.65365	0.07718
2142.72501	0.06915
2140.79636	0.07812
2138.86772	0.09700
2136.93907	0.11708
2135.01043	0.13391
2133.08178	0.14731
2131.15314	0.15879
2129.22449	0.16987
2127.29585	0.18093
2125.36720	0.19001
2123.43856	0.19358
2121.50991	0.18974
2119.58126	0.18076
2117.65262	0.17136
2115.72397	0.16475
2113.79533	0.16176
2111.86668	0.16285
2109.93804	0.16879
2108.00939	0.17904
2106.08075	0.19124
2104.15210	0.20225
2102.22346	0.20890
2100.29481	0.20827
2098.36617	0.19918
2096.43752	0.18401
2094.50887	0.16791
2092.58023	0.15605
2090.65158	0.15137
2088.72294	0.15394
2086.79429	0.16159
2084.86565	0.17093
2082.93700	0.17866
2081.00836	0.18291
2079.07971	0.18362
2077.15107	0.18212
2075.22242	0.18004
2073.29378	0.17832
2071.36513	0.17666
2069.43648	0.17335
2067.50784	0.16600
2065.57919	0.15294
2063.65055	0.13456
2061.72190	0.11373
2059.79326	0.09499
2057.86461	0.08282
2055.93597	0.08017
2054.00732	0.08768
2052.07868	0.10354
2050.15003	0.12380
2048.22139	0.14341
2046.29274	0.15791
2044.36409	0.16493
2042.43545	0.16569
2040.50680	0.16350
2038.57816	0.16260
2036.64951	0.16600
2034.72087	0.17369
2032.79222	0.18226
2030.86358	0.18687
2028.93493	0.18442
2027.00629	0.17549
2025.07764	0.16393
2023.14900	0.15510
2021.22035	0.15368
2019.29170	0.16127
2017.36306	0.17484
2015.43441	0.18819
2013.50577	0.19554
2011.57712	0.19433
2009.64848	0.18602
2007.71983	0.17514
2005.79119	0.16704
2003.86254	0.16491
2001.93390	0.16840
2000.00525	0.17535
1998.07661	0.18472
1996.14796	0.19748
1994.21932	0.21511
1992.29067	0.23709
1990.36202	0.25904
1988.43338	0.27322
1986.50473	0.27196
1984.57609	0.25253
1982.64744	0.21967
1980.71880	0.18424
1978.79015	0.15890
1976.86151	0.15308
1974.93286	0.16934
1973.00422	0.20243
1971.07557	0.24170
1969.14693	0.27543
1967.21828	0.29492
1965.28963	0.29680
1963.36099	0.28354
1961.43234	0.26179
1959.50370	0.23917
1957.57505	0.22102
1955.64641	0.20883
1953.71776	0.20052
1951.78912	0.19216
1949.86047	0.18009
1947.93183	0.16288
1946.00318	0.14221
1944.07454	0.12244
1942.14589	0.10910
1940.21724	0.10664
1938.28860	0.11619
1936.35995	0.13435
1934.43131	0.15411
1932.50266	0.16776
1930.57402	0.17036
1928.64537	0.16214
1926.71673	0.14837
1924.78808	0.13646
1922.85944	0.13218
1920.93079	0.13705
1919.00215	0.14824
1917.07350	0.16069
1915.14485	0.17013
1913.21621	0.17510
1911.28756	0.17719
1909.35892	0.17943
1907.43027	0.18406
1905.50163	0.19143
1903.57298	0.19997
1901.64434	0.20724
1899.71569	0.21107
1897.78705	0.21048
1895.85840	0.20599
1893.92976	0.19911
1892.00111	0.19172
1890.07246	0.18553
1888.14382	0.18171
1886.21517	0.18053
1884.28653	0.18136
1882.35788	0.18320
1880.42924	0.18523
1878.50059	0.18712
1876.57195	0.18905
1874.64330	0.19138
1872.71466	0.19396
1870.78601	0.19599
1868.85737	0.19651
1866.92872	0.19525
1865.00008	0.19308
1863.07143	0.19166
1861.14278	0.19269
1859.21414	0.19700
1857.28549	0.20391
1855.35685	0.21141
1853.42820	0.21706
1851.49956	0.21915
1849.57091	0.21739
1847.64227	0.21285
1845.71362	0.20741
1843.78498	0.20300
1841.85633	0.20091
1839.92769	0.20145
1837.99904	0.20404
1836.07039	0.20764
1834.14175	0.21110
1832.21310	0.21336
1830.28446	0.21366
1828.35581	0.21179
1826.42717	0.20805
1824.49852	0.20317
1822.56988	0.19813
1820.64123	0.19393
1818.71259	0.19141
1816.78394	0.19105
1814.85530	0.19286
1812.92665	0.19647
1810.99800	0.20111
1809.06936	0.20570
1807.14071	0.20912
1805.21207	0.21056
1803.28342	0.20985
1801.35478	0.20752
1799.42613	0.20455
1797.49749	0.20200
1795.56884	0.20062
1793.64020	0.20072
1791.71155	0.20231
1789.78291	0.20526
1787.85426	0.20935
1785.92561	0.21423
1783.99697	0.21931
1782.06832	0.22382
1780.13968	0.22710
1778.21103	0.22888
1776.28239	0.22958
1774.35374	0.23014
1772.42510	0.23157
1770.49645	0.23439
1768.56781	0.23842
1766.63916	0.24300
1764.71052	0.24754
1762.78187	0.25184
1760.85322	0.25612
1758.92458	0.26092
1756.99593	0.26667
1755.06729	0.27339
1753.13864	0.28078
1751.21000	0.28841
1749.28135	0.29604
1747.35271	0.30342
1745.42406	0.31023
1743.49542	0.31611
1741.56677	0.32094
1739.63813	0.32511
1737.70948	0.32954
1735.78084	0.33566
1733.85219	0.34480
1731.92354	0.35736
1729.99490	0.37226
1728.06625	0.38732
1726.13761	0.40019
1724.20896	0.40939
1722.28032	0.41494
1720.35167	0.41844
1718.42303	0.42239
1716.49438	0.42903
1714.56574	0.43929
1712.63709	0.45245
1710.70845	0.46678
1708.77980	0.48056
1706.85115	0.49307
1704.92251	0.50522
1702.99386	0.51944
1701.06522	0.53871
1699.13657	0.56501
1697.20793	0.59811
1695.27928	0.63560
1693.35064	0.67401
1691.42199	0.71033
1689.49335	0.74327
1687.56470	0.77349
1685.63606	0.80282
1683.70741	0.83298
1681.77876	0.86445
1679.85012	0.89648
1677.92147	0.92798
1675.99283	0.95844
1674.06418	0.98824
1672.13554	1.01836
1670.20689	1.04970
1668.27825	1.08239
1666.34960	1.11512
1664.42096	1.14540
1662.49231	1.17064
1660.56367	1.18930
1658.63502	1.20147
1656.70637	1.20909
1654.77773	1.21554
1652.84908	1.22439
1650.92044	1.23770
1648.99179	1.25503
1647.06315	1.27380
1645.13450	1.29043
1643.20586	1.30169
1641.27721	1.30589
1639.34857	1.30337
1637.41992	1.29606
1635.49128	1.28612
1633.56263	1.27489
1631.63399	1.26250
1629.70534	1.24832
1627.77669	1.23160
1625.84805	1.21214
1623.91940	1.19069
1621.99076	1.16875
1620.06211	1.14805
1618.13347	1.13003
1616.20482	1.11544
1614.27618	1.10436
1612.34753	1.09623
1610.41889	1.09024
1608.49024	1.08555
1606.56160	1.08143
1604.63295	1.07723
1602.70430	1.07243
1600.77566	1.06661
1598.84701	1.05940
1596.91837	1.05057
1594.98972	1.04020
1593.06108	1.02861
1591.13243	1.01621
1589.20379	1.00317
1587.27514	0.98938
1585.34650	0.97471
1583.41785	0.95924
1581.48921	0.94346
1579.56056	0.92832
1577.63191	0.91510
1575.70327	0.90487
1573.77462	0.89786
1571.84598	0.89297
1569.91733	0.88810
1567.98869	0.88103
1566.06004	0.87039
1564.13140	0.85645
1562.20275	0.84137
1560.27411	0.82847
1558.34546	0.82058
1556.41682	0.81845
1554.48817	0.82017
1552.55952	0.82185
1550.63088	0.81927
1548.70223	0.80965
1546.77359	0.79282
1544.84494	0.77128
1542.91630	0.74906
1540.98765	0.73006
1539.05901	0.71659
1537.13036	0.70866
1535.20172	0.70431
1533.27307	0.70064
1531.34443	0.69506
1529.41578	0.68620
1527.48713	0.67433
1525.55849	0.66119
1523.62984	0.64907
1521.70120	0.63962
1519.77255	0.63289
1517.84391	0.62721
1515.91526	0.61998
1513.98662	0.60892
1512.05797	0.59325
1510.12933	0.57408
1508.20068	0.55390
1506.27204	0.53542
1504.34339	0.52021
1502.41475	0.50808
1500.48610	0.49755
1498.55745	0.48693
1496.62881	0.47521
1494.70016	0.46250
1492.77152	0.44996
1490.84287	0.43926
1488.91423	0.43186
1486.98558	0.42826
1485.05694	0.42787
1483.12829	0.42956
1481.19965	0.43243
1479.27100	0.43638
1477.34236	0.44233
1475.41371	0.45185
1473.48506	0.46622
1471.55642	0.48529
1469.62777	0.50697
1467.69913	0.52781
1465.77048	0.54448
1463.84184	0.55508
1461.91319	0.55977
1459.98455	0.56052
1458.05590	0.56013
1456.12726	0.56084
1454.19861	0.56332
1452.26997	0.56676
1450.34132	0.56965
1448.41267	0.57061
1446.48403	0.56901
1444.55538	0.56517
1442.62674	0.56036
1440.69809	0.55623
1438.76945	0.55445
1436.84080	0.55629
1434.91216	0.56226
1432.98351	0.57194
1431.05487	0.58409
1429.12622	0.59721
1427.19758	0.61009
1425.26893	0.62227
1423.34028	0.63413
1421.41164	0.64662
1419.48299	0.66063
1417.55435	0.67648
1415.62570	0.69372
1413.69706	0.71135
1411.76841	0.72816
1409.83977	0.74309
1407.91112	0.75538
1405.98248	0.76467
1404.05383	0.77095
1402.12519	0.77454
1400.19654	0.77599
1398.26789	0.77595
1396.33925	0.77505
1394.41060	0.77377
1392.48196	0.77231
1390.55331	0.77059
1388.62467	0.76847
1386.69602	0.76592
1384.76738	0.76310
1382.83873	0.76027
1380.91009	0.75775
1378.98144	0.75569
1377.05280	0.75396
1375.12415	0.75208
1373.19551	0.74933
1371.26686	0.74509
1369.33821	0.73904
1367.40957	0.73133
1365.48092	0.72248
1363.55228	0.71323
1361.62363	0.70432
1359.69499	0.69621
1357.76634	0.68910
1355.83770	0.68293
1353.90905	0.67742
1351.98041	0.67206
1350.05176	0.66613
1348.12312	0.65894
1346.19447	0.65010
1344.26582	0.63977
1342.33718	0.62872
1340.40853	0.61813
1338.47989	0.60916
1336.55124	0.60246
1334.62260	0.59790
1332.69395	0.59472
1330.76531	0.59186
1328.83666	0.58836
1326.90802	0.58375
1324.97937	0.57814
1323.05073	0.57210
1321.12208	0.56632
1319.19343	0.56135
1317.26479	0.55743
1315.33614	0.55447
1313.40750	0.55212
1311.47885	0.54998
1309.55021	0.54774
1307.62156	0.54532
1305.69292	0.54284
1303.76427	0.54055
1301.83563	0.53874
1299.90698	0.53760
1297.97834	0.53722
1296.04969	0.53756
1294.12104	0.53851
1292.19240	0.53999
1290.26375	0.54197
1288.33511	0.54445
1286.40646	0.54738
1284.47782	0.55057
1282.54917	0.55376
1280.62053	0.55676
1278.69188	0.55953
1276.76324	0.56232
1274.83459	0.56556
1272.90595	0.56969
1270.97730	0.57484
1269.04866	0.58075
1267.12001	0.58669
1265.19136	0.59176
1263.26272	0.59514
1261.33407	0.59639
1259.40543	0.59556
1257.47678	0.59313
1255.54814	0.58991
1253.61949	0.58685
1251.69085	0.58470
1249.76220	0.58385
1247.83356	0.58428
1245.90491	0.58567
1243.97627	0.58760
1242.04762	0.58972
1240.11897	0.59189
1238.19033	0.59423
1236.26168	0.59683
1234.33304	0.59957
1232.40439	0.60197
1230.47575	0.60340
1228.54710	0.60332
1226.61846	0.60149
1224.68981	0.59811
1222.76117	0.59367
1220.83252	0.58882
1218.90388	0.58403
1216.97523	0.57953
1215.04658	0.57533
1213.11794	0.57134
1211.18929	0.56748
1209.26065	0.56378
1207.33200	0.56055
1205.40336	0.55835
1203.47471	0.55773
1201.54607	0.55897
1199.61742	0.56195
1197.68878	0.56615
1195.76013	0.57090
1193.83149	0.57560
1191.90284	0.58029
1189.97419	0.58591
1188.04555	0.59401
1186.11690	0.60590
1184.18826	0.62192
1182.25961	0.64127
1180.33097	0.66236
1178.40232	0.68348
1176.47368	0.70376
1174.54503	0.72385
1172.61639	0.74539
1170.68774	0.76980
1168.75910	0.79721
1166.83045	0.82660
1164.90180	0.85654
1162.97316	0.88600
1161.04451	0.91488
1159.11587	0.94411
1157.18722	0.97463
1155.25858	1.00638
1153.32993	1.03831
1151.40129	1.06932
1149.47264	1.09908
1147.54400	1.12818
1145.61535	1.15789
1143.68671	1.18973
1141.75806	1.22451
1139.82942	1.26178
1137.90077	1.30058
1135.97212	1.34050
1134.04348	1.38156
1132.11483	1.42362
1130.18619	1.46614
1128.25754	1.50814
1126.32890	1.54790
1124.40025	1.58330
1122.47161	1.61291
1120.54296	1.63696
1118.61432	1.65700
1116.68567	1.67519
1114.75703	1.69375
1112.82838	1.71426
1110.89973	1.73717
1108.97109	1.76203
1107.04244	1.78791
1105.11380	1.81367
1103.18515	1.83804
1101.25651	1.85977
1099.32786	1.87789
1097.39922	1.89192
1095.47057	1.90220
1093.54193	1.90972
1091.61328	1.91554
1089.68464	1.92001
1087.75599	1.92255
1085.82734	1.92232
1083.89870	1.91883
1081.97005	1.91217
1080.04141	1.90291
1078.11276	1.89181
1076.18412	1.87926
1074.25547	1.86465
1072.32683	1.84664
1070.39818	1.82393
1068.46954	1.79580
1066.54089	1.76220
1064.61225	1.72402
1062.68360	1.68308
1060.75495	1.64142
1058.82631	1.60045
1056.89766	1.56084
1054.96902	1.52267
1053.04037	1.48548
1051.11173	1.44869
1049.18308	1.41227
1047.25444	1.37671
1045.32579	1.34249
1043.39715	1.30985
1041.46850	1.27883
1039.53986	1.24940
1037.61121	1.22139
1035.68256	1.19461
1033.75392	1.16907
1031.82527	1.14472
1029.89663	1.12120
1027.96798	1.09801
1026.03934	1.07511
1024.11069	1.05309
1022.18205	1.03271
1020.25340	1.01446
1018.32476	0.99852
1016.39611	0.98465
1014.46747	0.97222
1012.53882	0.96089
1010.61018	0.95099
1008.68153	0.94294
1006.75288	0.93647
1004.82424	0.93087
1002.89559	0.92578
1000.96695	0.92150
999.03830	0.91884
997.10966	0.91871
995.18101	0.92141
993.25237	0.92594
991.32372	0.93020
989.39508	0.93209
987.46643	0.93034
985.53779	0.92455
983.60914	0.91460
981.68049	0.90037
979.75185	0.88180
977.82320	0.85890
975.89456	0.83208
973.96591	0.80262
972.03727	0.77245
970.10862	0.74286
968.17998	0.71379
966.25133	0.68465
964.32269	0.65526
962.39404	0.62596
960.46540	0.59762
958.53675	0.57212
956.60810	0.55137
954.67946	0.53529
952.75081	0.52162
950.82217	0.50816
948.89352	0.49437
946.96488	0.48105
945.03623	0.46975
943.10759	0.46225
941.17894	0.45935
939.25030	0.45970
937.32165	0.46053
935.39301	0.45946
933.46436	0.45530
931.53571	0.44778
929.60707	0.43750
927.67842	0.42585
925.74978	0.41459
923.82113	0.40559
921.89249	0.40061
919.96384	0.40063
918.03520	0.40521
916.10655	0.41242
914.17791	0.41983
912.24926	0.42541
910.32062	0.42802
908.39197	0.42781
906.46333	0.42609
904.53468	0.42455
902.60603	0.42430
900.67739	0.42559
898.74874	0.42819
896.82010	0.43148
894.89145	0.43472
892.96281	0.43805
891.03416	0.44263
889.10552	0.44999
887.17687	0.46137
885.24823	0.47696
883.31958	0.49500
881.39094	0.51184
879.46229	0.52361
877.53364	0.52818
875.60500	0.52588
873.67635	0.51931
871.74771	0.51219
869.81906	0.50749
867.89042	0.50619
865.96177	0.50780
864.03313	0.51125
862.10448	0.51519
860.17584	0.51864
858.24719	0.52146
856.31855	0.52369
854.38990	0.52486
852.46125	0.52448
850.53261	0.52260
848.60396	0.51963
846.67532	0.51602
844.74667	0.51243
842.81803	0.50976
840.88938	0.50858
838.96074	0.50870
837.03209	0.50932
835.10345	0.50930
833.17480	0.50732
831.24616	0.50246
829.31751	0.49475
827.38886	0.48537
825.46022	0.47616
823.53157	0.46888
821.60293	0.46469
819.67428	0.46387
817.74564	0.46572
815.81699	0.46874
813.88835	0.47143
811.95970	0.47303
810.03106	0.47356
808.10241	0.47321
806.17377	0.47236
804.24512	0.47210
802.31647	0.47392
800.38783	0.47833
798.45918	0.48421
796.53054	0.48954
794.60189	0.49210
792.67325	0.48999
790.74460	0.48313
788.81596	0.47436
786.88731	0.46795
784.95867	0.46679
783.03002	0.47116
781.10138	0.47923
779.17273	0.48756
777.24409	0.49242
775.31544	0.49191
773.38679	0.48681
771.45815	0.47927
769.52950	0.47176
767.60086	0.46675
765.67221	0.46583
763.74357	0.46827
761.81492	0.47131
759.88628	0.47228
757.95763	0.47030
756.02899	0.46652
754.10034	0.46370
752.17170	0.46530
750.24305	0.47352
748.31440	0.48731
746.38576	0.50266
744.45711	0.51535
742.52847	0.52325
740.59982	0.52622
738.67118	0.52520
736.74253	0.52231
734.81389	0.52027
732.88524	0.52086
730.95660	0.52429
729.02795	0.53004
727.09931	0.53712
725.17066	0.54368
723.24201	0.54780
721.31337	0.54932
719.38472	0.54979
717.45608	0.55103
715.52743	0.55397
713.59879	0.55835
711.67014	0.56285
709.74150	0.56582
707.81285	0.56647
705.88421	0.56536
703.95556	0.56376
702.02692	0.56274
700.09827	0.56264
698.16962	0.56302
696.24098	0.56301
694.31233	0.56191
692.38369	0.55968
690.45504	0.55716
688.52640	0.55586
686.59775	0.55728
684.66911	0.56227
682.74046	0.57069
680.81182	0.58167
678.88317	0.59399
676.95453	0.60624
675.02588	0.61713
673.09723	0.62558
671.16859	0.63073
669.23994	0.63188
667.31130	0.62896
665.38265	0.62326
663.45401	0.61712
661.52536	0.61246
659.59672	0.61006
657.66807	0.60956
655.73943	0.60994
653.81078	0.60998
651.88214	0.60890
649.95349	0.60686
648.02485	0.60467
646.09620	0.60311
644.16755	0.60301
642.23891	0.60559
640.31026	0.61228
638.38162	0.62361
636.45297	0.63805
634.52433	0.65224
632.59568	0.66260
630.66704	0.66654
628.73839	0.66283
626.80975	0.65205
624.88110	0.63679
622.95246	0.62184
621.02381	0.61442
619.09516	0.62392
617.16652	0.65931
615.23787	0.72377
613.30923	0.80997
611.38058	0.90022
609.45194	0.97182
607.52329	1.00575
605.59465	0.99445
603.66600	0.94406
601.73736	0.87058
599.80871	0.79279
597.88007	0.72616
595.95142	0.67968
594.02277	0.65560
592.09413	0.65130
590.16548	0.66170
588.23684	0.68079
586.30819	0.70263
584.37955	0.72261
582.45090	0.73828
580.52226	0.74934
578.59361	0.75665
576.66497	0.76133
574.73632	0.76461
572.80768	0.76803
570.87903	0.77307
568.95038	0.78054
567.02174	0.79044
565.09309	0.80230
563.16445	0.81559
561.23580	0.83033
559.30716	0.84744
557.37851	0.86790
555.44987	0.89114
553.52122	0.91422
551.59258	0.93273
549.66393	0.94254
547.73529	0.94162
545.80664	0.93125
543.87800	0.91588
541.94935	0.90143
540.02070	0.89279
538.09206	0.89224
536.16341	0.89913
534.23477	0.91053
532.30612	0.92234
530.37748	0.93050
528.44883	0.93198
526.52019	0.92469
524.59154	0.90715
522.66290	0.87847
520.73425	0.83903
518.80561	0.79119
516.87696	0.73944
514.94831	0.69004
513.01967	0.64978
511.09102	0.62374
509.16238	0.61327
507.23373	0.61522
505.30509	0.62327
503.37644	0.63064
501.44780	0.63301
499.51915	0.63005
497.59051	0.62465
495.66186	0.62039
493.73322	0.61890
491.80457	0.61871
489.87592	0.61647
487.94728	0.60977
486.01863	0.59921
484.08999	0.58830
482.16134	0.58112
480.23270	0.57943
478.30405	0.58116
476.37541	0.58146
474.44676	0.57578
472.51812	0.56294
470.58947	0.54588
468.66083	0.52986
466.73218	0.51929
464.80353	0.51518
462.87489	0.51487
460.94624	0.51390
459.01760	0.50905
457.08895	0.50020
455.16031	0.49008
453.23166	0.48238
451.30302	0.47939
449.37437	0.48086
447.44573	0.48447
445.51708	0.48748
443.58844	0.48801
441.65979	0.48564
439.73114	0.48109
437.80250	0.47559
435.87385	0.46994
433.94521	0.46414
432.01656	0.45756
430.08792	0.44936
428.15927	0.43898
426.23063	0.42662
424.30198	0.41355
422.37334	0.40200
420.44469	0.39449
418.51605	0.39280
416.58740	0.39693
414.65876	0.40447
412.73011	0.41119
410.80146	0.41251
408.87282	0.40507
406.94417	0.38806
405.01553	0.36367
403.08688	0.33631
401.15824	0.31067
399.22959	0.29000
397.30095	0.27552
395.37230	0.26690
393.44366	0.26309
391.51501	0.26299
389.58637	0.26566
387.65772	0.26987
385.72907	0.27357
383.80043	0.27440
381.87178	0.27111
379.94314	0.26463
378.01449	0.25792
376.08585	0.25459
374.15720	0.25703
372.22856	0.26501
370.29991	0.27534
368.37127	0.28316
366.44262	0.28399
364.51398	0.27536
362.58533	0.25732
360.65668	0.23188
358.72804	0.20228
356.79939	0.17251
354.87075	0.14695
352.94210	0.12977
351.01346	0.12416
349.08481	0.13140
347.15617	0.14987
345.22752	0.17461
343.29888	0.19818
341.37023	0.21315
339.44159	0.21488
337.51294	0.20327
335.58429	0.18282
333.65565	0.16085
331.72700	0.14464
329.79836	0.13872
327.86971	0.14340
325.94107	0.15538
324.01242	0.16973
322.08378	0.18216
320.15513	0.19033
318.22649	0.19376
316.29784	0.19298
314.36920	0.18820
312.44055	0.17865
310.51190	0.16348
308.58326	0.14360
306.65461	0.12286
304.72597	0.10736
302.79732	0.10311
300.86868	0.11321
298.94003	0.13588
297.01139	0.16498
295.08274	0.19255
293.15410	0.21166
291.22545	0.21789
289.29681	0.20984
287.36816	0.18839
285.43952	0.15738
283.51087	0.12333
281.58222	0.09482
279.65358	0.08054
277.72493	0.08618
275.79629	0.11201
273.86764	0.15281
271.93900	0.20008
270.01035	0.24496
268.08171	0.28030
266.15306	0.30110
264.22442	0.30410
262.29577	0.28780
260.36713	0.25358
258.43848	0.20706
256.50983	0.15853
254.58119	0.12088
252.65254	0.10548
250.72390	0.11739
248.79525	0.15311
246.86661	0.20220
244.93796	0.25229
243.00932	0.29473
241.08067	0.32783
239.15203	0.35565
237.22338	0.38377
235.29474	0.41467
233.36609	0.44556
231.43744	0.46993
229.50880	0.48162
227.58015	0.47858
225.65151	0.46376
223.72286	0.44301
221.79422	0.42194
219.86557	0.40345
217.93693	0.38727
216.00828	0.37127
214.07964	0.35353
212.15099	0.33450
210.22235	0.31804
208.29370	0.31058
206.36505	0.31848
204.43641	0.34486
202.50776	0.38713
200.57912	0.43671
198.65047	0.48207
196.72183	0.51461
194.79318	0.53295
192.86454	0.54246
190.93589	0.55074
189.00725	0.56255
187.07860	0.57711
185.14996	0.58914
183.22131	0.59367
181.29267	0.59184
179.36402	0.59217
177.43537	0.60512
175.50673	0.63625
173.57808	0.68444
171.64944	0.74514
169.72079	0.81456
167.79215	0.89155
165.86350	0.97658
163.93486	1.06826
162.00621	1.16650
160.07757	1.25634
158.14892	1.32604
156.22028	1.37044
154.29163	1.37044
152.36298	1.37044
150.43434	1.37044
148.50569	1.37044
