4497.60101	0.05807
4495.67236	0.05807
4493.74372	0.05807
4491.81507	0.05807
4489.88643	0.05807
4487.95778	0.05451
4486.02914	0.04957
4484.10049	0.04400
4482.17185	0.03900
4480.24320	0.03663
4478.31455	0.03809
4476.38591	0.04327
4474.45726	0.04993
4472.52862	0.05532
4470.59997	0.05748
4468.67133	0.05551
4466.74268	0.05029
4464.81404	0.04478
4462.88539	0.04242
4460.95675	0.04457
4459.02810	0.04972
4457.09946	0.05516
4455.17081	0.05855
4453.24216	0.05845
4451.31352	0.05465
4449.38487	0.04841
4447.45623	0.04205
4445.52758	0.03777
4443.59894	0.03652
4441.67029	0.03788
4439.74165	0.04056
4437.81300	0.04267
4435.88436	0.04224
4433.95571	0.03874
4432.02707	0.03403
4430.09842	0.03124
4428.16978	0.03231
4426.24113	0.03689
4424.31248	0.04280
4422.38384	0.04718
4420.45519	0.04804
4418.52655	0.04564
4416.59790	0.04227
4414.66926	0.04032
4412.74061	0.04060
4410.81197	0.04231
4408.88332	0.04401
4406.95468	0.04453
4405.02603	0.04372
4403.09739	0.04243
4401.16874	0.04187
4399.24009	0.04290
4397.31145	0.04585
4395.38280	0.05061
4393.45416	0.05603
4391.52551	0.05983
4389.59687	0.05977
4387.66822	0.05495
4385.73958	0.04611
4383.81093	0.03525
4381.88229	0.02537
4379.95364	0.01952
4378.02500	0.01907
4376.09635	0.02308
4374.16770	0.02943
4372.23906	0.03595
4370.31041	0.04075
4368.38177	0.04274
4366.45312	0.04234
4364.52448	0.04128
4362.59583	0.04138
4360.66719	0.04334
4358.73854	0.04660
4356.80990	0.04969
4354.88125	0.05100
4352.95261	0.04977
4351.02396	0.04669
4349.09531	0.04363
4347.16667	0.04237
4345.23802	0.04338
4343.30938	0.04586
4341.38073	0.04857
4339.45209	0.05042
4337.52344	0.05059
4335.59480	0.04892
4333.66615	0.04629
4331.73751	0.04385
4329.80886	0.04211
4327.88022	0.04073
4325.95157	0.03934
4324.02292	0.03781
4322.09428	0.03600
4320.16563	0.03358
4318.23699	0.03069
4316.30834	0.02816
4314.37970	0.02667
4312.45105	0.02619
4310.52241	0.02651
4308.59376	0.02745
4306.66512	0.02836
4304.73647	0.02813
4302.80783	0.02634
4300.87918	0.02378
4298.95054	0.02170
4297.02189	0.02111
4295.09324	0.02247
4293.16460	0.02550
4291.23595	0.02890
4289.30731	0.03118
4287.37866	0.03174
4285.45002	0.03115
4283.52137	0.03042
4281.59273	0.03044
4279.66408	0.03202
4277.73544	0.03571
4275.80679	0.04107
4273.87815	0.04648
4271.94950	0.05022
4270.02085	0.05142
4268.09221	0.04976
4266.16356	0.04537
4264.23492	0.03939
4262.30627	0.03391
4260.37763	0.03046
4258.44898	0.02923
4256.52034	0.02986
4254.59169	0.03211
4252.66305	0.03552
4250.73440	0.03930
4248.80576	0.04290
4246.87711	0.04600
4244.94846	0.04792
4243.01982	0.04767
4241.09117	0.04469
4239.16253	0.03942
4237.23388	0.03320
4235.30524	0.02788
4233.37659	0.02526
4231.44795	0.02632
4229.51930	0.03064
4227.59066	0.03685
4225.66201	0.04354
4223.73337	0.04963
4221.80472	0.05438
4219.87607	0.05760
4217.94743	0.05967
4216.01878	0.06087
4214.09014	0.06095
4212.16149	0.05983
4210.23285	0.05788
4208.30420	0.05533
4206.37556	0.05210
4204.44691	0.04859
4202.51827	0.04576
4200.58962	0.04414
4198.66098	0.04321
4196.73233	0.04212
4194.80368	0.04043
4192.87504	0.03805
4190.94639	0.03524
4189.01775	0.03274
4187.08910	0.03141
4185.16046	0.03139
4183.23181	0.03186
4181.30317	0.03194
4179.37452	0.03162
4177.44588	0.03159
4175.51723	0.03261
4173.58859	0.03503
4171.65994	0.03855
4169.73130	0.04196
4167.80265	0.04365
4165.87400	0.04254
4163.94536	0.03852
4162.01671	0.03229
4160.08807	0.02522
4158.15942	0.01913
4156.23078	0.01533
4154.30213	0.01405
4152.37349	0.01486
4150.44484	0.01724
4148.51620	0.02047
4146.58755	0.02355
4144.65891	0.02581
4142.73026	0.02726
4140.80161	0.02834
4138.87297	0.02973
4136.94432	0.03208
4135.01568	0.03554
4133.08703	0.03947
4131.15839	0.04255
4129.22974	0.04359
4127.30110	0.04243
4125.37245	0.04015
4123.44381	0.03808
4121.51516	0.03650
4119.58652	0.03416
4117.65787	0.02949
4115.72922	0.02219
4113.80058	0.01386
4111.87193	0.00734
4109.94329	0.00524
4108.01464	0.00862
4106.08600	0.01600
4104.15735	0.02390
4102.22871	0.02894
4100.30006	0.03007
4098.37142	0.02847
4096.44277	0.02605
4094.51413	0.02441
4092.58548	0.02460
4090.65683	0.02661
4088.72819	0.02942
4086.79954	0.03201
4084.87090	0.03414
4082.94225	0.03588
4081.01361	0.03698
4079.08496	0.03708
4077.15632	0.03603
4075.22767	0.03416
4073.29903	0.03237
4071.37038	0.03181
4069.44174	0.03326
4067.51309	0.03650
4065.58444	0.04011
4063.65580	0.04221
4061.72715	0.04157
4059.79851	0.03856
4057.86986	0.03487
4055.94122	0.03243
4054.01257	0.03233
4052.08393	0.03418
4050.15528	0.03657
4048.22664	0.03810
4046.29799	0.03822
4044.36935	0.03725
4042.44070	0.03598
4040.51206	0.03506
4038.58341	0.03453
4036.65476	0.03384
4034.72612	0.03272
4032.79747	0.03165
4030.86883	0.03119
4028.94018	0.03140
4027.01154	0.03195
4025.08289	0.03218
4023.15425	0.03131
4021.22560	0.02907
4019.29696	0.02635
4017.36831	0.02471
4015.43967	0.02531
4013.51102	0.02815
4011.58237	0.03207
4009.65373	0.03565
4007.72508	0.03760
4005.79644	0.03750
4003.86779	0.03604
4001.93915	0.03438
4000.01050	0.03346
3998.08186	0.03354
3996.15321	0.03427
3994.22457	0.03514
3992.29592	0.03577
3990.36728	0.03618
3988.43863	0.03664
3986.50998	0.03752
3984.58134	0.03902
3982.65269	0.04104
3980.72405	0.04324
3978.79540	0.04521
3976.86676	0.04654
3974.93811	0.04670
3973.00947	0.04517
3971.08082	0.04173
3969.15218	0.03668
3967.22353	0.03080
3965.29489	0.02523
3963.36624	0.02117
3961.43759	0.01940
3959.50895	0.01995
3957.58030	0.02231
3955.65166	0.02572
3953.72301	0.02942
3951.79437	0.03271
3949.86572	0.03499
3947.93708	0.03584
3946.00843	0.03515
3944.07979	0.03328
3942.15114	0.03104
3940.22250	0.02941
3938.29385	0.02897
3936.36521	0.02957
3934.43656	0.03036
3932.50791	0.03041
3930.57927	0.02936
3928.65062	0.02765
3926.72198	0.02635
3924.79333	0.02654
3922.86469	0.02869
3920.93604	0.03246
3919.00740	0.03684
3917.07875	0.04075
3915.15011	0.04345
3913.22146	0.04469
3911.29282	0.04455
3909.36417	0.04329
3907.43552	0.04125
3905.50688	0.03876
3903.57823	0.03620
3901.64959	0.03409
3899.72094	0.03298
3897.79230	0.03325
3895.86365	0.03486
3893.93501	0.03734
3892.00636	0.03987
3890.07772	0.04151
3888.14907	0.04163
3886.22043	0.04013
3884.29178	0.03734
3882.36313	0.03381
3880.43449	0.03010
3878.50584	0.02681
3876.57720	0.02455
3874.64855	0.02385
3872.71991	0.02508
3870.79126	0.02826
3868.86262	0.03286
3866.93397	0.03787
3865.00533	0.04208
3863.07668	0.04465
3861.14804	0.04533
3859.21939	0.04444
3857.29074	0.04266
3855.36210	0.04077
3853.43345	0.03952
3851.50481	0.03944
3849.57616	0.04075
3847.64752	0.04330
3845.71887	0.04661
3843.79023	0.04999
3841.86158	0.05265
3839.93294	0.05395
3838.00429	0.05369
3836.07565	0.05214
3834.14700	0.04993
3832.21835	0.04790
3830.28971	0.04683
3828.36106	0.04718
3826.43242	0.04882
3824.50377	0.05104
3822.57513	0.05274
3820.64648	0.05297
3818.71784	0.05135
3816.78919	0.04834
3814.86055	0.04510
3812.93190	0.04296
3811.00326	0.04277
3809.07461	0.04443
3807.14597	0.04692
3805.21732	0.04881
3803.28867	0.04899
3801.36003	0.04714
3799.43138	0.04383
3797.50274	0.04013
3795.57409	0.03711
3793.64545	0.03530
3791.71680	0.03455
3789.78816	0.03433
3787.85951	0.03415
3785.93087	0.03385
3784.00222	0.03360
3782.07358	0.03376
3780.14493	0.03458
3778.21628	0.03613
3776.28764	0.03818
3774.35899	0.04037
3772.43035	0.04225
3770.50170	0.04341
3768.57306	0.04352
3766.64441	0.04247
3764.71577	0.04051
3762.78712	0.03846
3760.85848	0.03747
3758.92983	0.03852
3757.00119	0.04186
3755.07254	0.04671
3753.14389	0.05145
3751.21525	0.05429
3749.28660	0.05414
3747.35796	0.05117
3745.42931	0.04664
3743.50067	0.04225
3741.57202	0.03938
3739.64338	0.03853
3737.71473	0.03928
3735.78609	0.04070
3733.85744	0.04183
3731.92880	0.04206
3730.00015	0.04121
3728.07150	0.03958
3726.14286	0.03785
3724.21421	0.03672
3722.28557	0.03658
3720.35692	0.03742
3718.42828	0.03898
3716.49963	0.04100
3714.57099	0.04351
3712.64234	0.04692
3710.71370	0.05176
3708.78505	0.05803
3706.85641	0.06483
3704.92776	0.07055
3702.99911	0.07362
3701.07047	0.07336
3699.14182	0.07048
3697.21318	0.06698
3695.28453	0.06528
3693.35589	0.06704
3691.42724	0.07223
3689.49860	0.07911
3687.56995	0.08510
3685.64131	0.08818
3683.71266	0.08787
3681.78402	0.08556
3679.85537	0.08368
3677.92673	0.08439
3675.99808	0.08844
3674.06943	0.09485
3672.14079	0.10171
3670.21214	0.10739
3668.28350	0.11140
3666.35485	0.11443
3664.42621	0.11779
3662.49756	0.12261
3660.56892	0.12933
3658.64027	0.13760
3656.71163	0.14660
3654.78298	0.15550
3652.85434	0.16387
3650.92569	0.17161
3648.99704	0.17886
3647.06840	0.18589
3645.13975	0.19295
3643.21111	0.20002
3641.28246	0.20683
3639.35382	0.21324
3637.42517	0.21964
3635.49653	0.22696
3633.56788	0.23621
3631.63924	0.24815
3629.71059	0.26279
3627.78195	0.27917
3625.85330	0.29563
3623.92465	0.31052
3621.99601	0.32272
3620.06736	0.33163
3618.13872	0.33716
3616.21007	0.33978
3614.28143	0.34054
3612.35278	0.34098
3610.42414	0.34277
3608.49549	0.34744
3606.56685	0.35593
3604.63820	0.36810
3602.70956	0.38274
3600.78091	0.39810
3598.85226	0.41249
3596.92362	0.42468
3594.99497	0.43416
3593.06633	0.44123
3591.13768	0.44683
3589.20904	0.45217
3587.28039	0.45830
3585.35175	0.46586
3583.42310	0.47493
3581.49446	0.48517
3579.56581	0.49598
3577.63717	0.50690
3575.70852	0.51771
3573.77988	0.52844
3571.85123	0.53922
3569.92258	0.55013
3567.99394	0.56114
3566.06529	0.57213
3564.13665	0.58305
3562.20800	0.59397
3560.27936	0.60502
3558.35071	0.61625
3556.42207	0.62748
3554.49342	0.63838
3552.56478	0.64857
3550.63613	0.65768
3548.70749	0.66558
3546.77884	0.67254
3544.85019	0.67918
3542.92155	0.68637
3540.99290	0.69503
3539.06426	0.70585
3537.13561	0.71896
3535.20697	0.73386
3533.27832	0.74949
3531.34968	0.76463
3529.42103	0.77838
3527.49239	0.79045
3525.56374	0.80117
3523.63510	0.81120
3521.70645	0.82115
3519.77780	0.83135
3517.84916	0.84174
3515.92051	0.85197
3513.99187	0.86173
3512.06322	0.87092
3510.13458	0.87969
3508.20593	0.88835
3506.27729	0.89739
3504.34864	0.90726
3502.42000	0.91818
3500.49135	0.93001
3498.56271	0.94224
3496.63406	0.95408
3494.70541	0.96465
3492.77677	0.97322
3490.84812	0.97953
3488.91948	0.98395
3486.99083	0.98736
3485.06219	0.99092
3483.13354	0.99574
3481.20490	1.00248
3479.27625	1.01119
3477.34761	1.02131
3475.41896	1.03193
3473.49032	1.04217
3471.56167	1.05149
3469.63302	1.05968
3467.70438	1.06688
3465.77573	1.07341
3463.84709	1.07964
3461.91844	1.08584
3459.98980	1.09231
3458.06115	1.09941
3456.13251	1.10748
3454.20386	1.11671
3452.27522	1.12698
3450.34657	1.13777
3448.41793	1.14820
3446.48928	1.15730
3444.56064	1.16437
3442.63199	1.16942
3440.70334	1.17315
3438.77470	1.17664
3436.84605	1.18083
3434.91741	1.18611
3432.98876	1.19224
3431.06012	1.19862
3429.13147	1.20470
3427.20283	1.21027
3425.27418	1.21552
3423.34554	1.22070
3421.41689	1.22587
3419.48825	1.23084
3417.55960	1.23536
3415.63095	1.23934
3413.70231	1.24295
3411.77366	1.24647
3409.84502	1.25015
3407.91637	1.25408
3405.98773	1.25823
3404.05908	1.26249
3402.13044	1.26680
3400.20179	1.27113
3398.27315	1.27536
3396.34450	1.27930
3394.41586	1.28284
3392.48721	1.28598
3390.55856	1.28880
3388.62992	1.29135
3386.70127	1.29357
3384.77263	1.29521
3382.84398	1.29599
3380.91534	1.29591
3378.98669	1.29529
3377.05805	1.29469
3375.12940	1.29459
3373.20076	1.29526
3371.27211	1.29672
3369.34347	1.29874
3367.41482	1.30101
3365.48617	1.30327
3363.55753	1.30531
3361.62888	1.30679
3359.70024	1.30736
3357.77159	1.30681
3355.84295	1.30530
3353.91430	1.30322
3351.98566	1.30106
3350.05701	1.29924
3348.12837	1.29807
3346.19972	1.29765
3344.27108	1.29798
3342.34243	1.29912
3340.41378	1.30109
3338.48514	1.30372
3336.55649	1.30655
3334.62785	1.30902
3332.69920	1.31063
3330.77056	1.31112
3328.84191	1.31049
3326.91327	1.30900
3324.98462	1.30695
3323.05598	1.30454
3321.12733	1.30184
3319.19869	1.29900
3317.27004	1.29623
3315.34140	1.29385
3313.41275	1.29222
3311.48410	1.29164
3309.55546	1.29220
3307.62681	1.29365
3305.69817	1.29559
3303.76952	1.29764
3301.84088	1.29967
3299.91223	1.30176
3297.98359	1.30411
3296.05494	1.30678
3294.12630	1.30948
3292.19765	1.31157
3290.26901	1.31230
3288.34036	1.31119
3286.41171	1.30832
3284.48307	1.30423
3282.55442	1.29966
3280.62578	1.29527
3278.69713	1.29141
3276.76849	1.28807
3274.83984	1.28503
3272.91120	1.28212
3270.98255	1.27933
3269.05391	1.27670
3267.12526	1.27424
3265.19662	1.27185
3263.26797	1.26935
3261.33932	1.26649
3259.41068	1.26303
3257.48203	1.25886
3255.55339	1.25405
3253.62474	1.24870
3251.69610	1.24295
3249.76745	1.23690
3247.83881	1.23069
3245.91016	1.22447
3243.98152	1.21847
3242.05287	1.21296
3240.12423	1.20808
3238.19558	1.20377
3236.26693	1.19974
3234.33829	1.19571
3232.40964	1.19155
3230.48100	1.18730
3228.55235	1.18319
3226.62371	1.17947
3224.69506	1.17624
3222.76642	1.17324
3220.83777	1.17007
3218.90913	1.16630
3216.98048	1.16158
3215.05184	1.15568
3213.12319	1.14863
3211.19455	1.14074
3209.26590	1.13251
3207.33725	1.12446
3205.40861	1.11705
3203.47996	1.11055
3201.55132	1.10488
3199.62267	1.09966
3197.69403	1.09446
3195.76538	1.08899
3193.83674	1.08323
3191.90809	1.07737
3189.97945	1.07177
3188.05080	1.06677
3186.12216	1.06255
3184.19351	1.05904
3182.26486	1.05601
3180.33622	1.05318
3178.40757	1.05028
3176.47893	1.04717
3174.55028	1.04374
3172.62164	1.03999
3170.69299	1.03584
3168.76435	1.03120
3166.83570	1.02595
3164.90706	1.02000
3162.97841	1.01329
3161.04977	1.00582
3159.12112	0.99769
3157.19247	0.98908
3155.26383	0.98025
3153.33518	0.97155
3151.40654	0.96339
3149.47789	0.95615
3147.54925	0.95002
3145.62060	0.94492
3143.69196	0.94059
3141.76331	0.93659
3139.83467	0.93253
3137.90602	0.92832
3135.97738	0.92414
3134.04873	0.92033
3132.12008	0.91711
3130.19144	0.91439
3128.26279	0.91175
3126.33415	0.90858
3124.40550	0.90441
3122.47686	0.89919
3120.54821	0.89332
3118.61957	0.88737
3116.69092	0.88180
3114.76228	0.87670
3112.83363	0.87169
3110.90499	0.86625
3108.97634	0.86012
3107.04769	0.85356
3105.11905	0.84740
3103.19040	0.84265
3101.26176	0.84007
3099.33311	0.83974
3097.40447	0.84085
3095.47582	0.84207
3093.54718	0.84211
3091.61853	0.84026
3089.68989	0.83662
3087.76124	0.83186
3085.83260	0.82675
3083.90395	0.82174
3081.97531	0.81688
3080.04666	0.81201
3078.11801	0.80714
3076.18937	0.80262
3074.26072	0.79892
3072.33208	0.79614
3070.40343	0.79383
3068.47479	0.79107
3066.54614	0.78701
3064.61750	0.78127
3062.68885	0.77422
3060.76021	0.76676
3058.83156	0.75990
3056.90292	0.75433
3054.97427	0.75022
3053.04562	0.74725
3051.11698	0.74486
3049.18833	0.74243
3047.25969	0.73946
3045.33104	0.73568
3043.40240	0.73113
3041.47375	0.72615
3039.54511	0.72125
3037.61646	0.71685
3035.68782	0.71312
3033.75917	0.70988
3031.83053	0.70671
3029.90188	0.70314
3027.97323	0.69890
3026.04459	0.69401
3024.11594	0.68870
3022.18730	0.68340
3020.25865	0.67859
3018.33001	0.67473
3016.40136	0.67210
3014.47272	0.67077
3012.54407	0.67052
3010.61543	0.67092
3008.68678	0.67130
3006.75814	0.67101
3004.82949	0.66978
3002.90084	0.66794
3000.97220	0.66629
2999.04355	0.66565
2997.11491	0.66645
2995.18626	0.66858
2993.25762	0.67136
2991.32897	0.67373
2989.40033	0.67491
2987.47168	0.67490
2985.54304	0.67431
2983.61439	0.67388
2981.68575	0.67419
2979.75710	0.67579
2977.82845	0.67912
2975.89981	0.68426
2973.97116	0.69102
2972.04252	0.69905
2970.11387	0.70782
2968.18523	0.71651
2966.25658	0.72434
2964.32794	0.73097
2962.39929	0.73623
2960.47065	0.73983
2958.54200	0.74141
2956.61336	0.74088
2954.68471	0.73872
2952.75607	0.73590
2950.82742	0.73376
2948.89877	0.73343
2946.97013	0.73523
2945.04148	0.73865
2943.11284	0.74295
2941.18419	0.74774
2939.25555	0.75310
2937.32690	0.75922
2935.39826	0.76617
2933.46961	0.77369
2931.54097	0.78145
2929.61232	0.78943
2927.68368	0.79808
2925.75503	0.80762
2923.82638	0.81716
2921.89774	0.82439
2919.96909	0.82624
2918.04045	0.82017
2916.11180	0.80557
2914.18316	0.78443
2912.25451	0.76058
2910.32587	0.73790
2908.39722	0.71895
2906.46858	0.70453
2904.53993	0.69391
2902.61129	0.68555
2900.68264	0.67814
2898.75399	0.67115
2896.82535	0.66463
2894.89670	0.65879
2892.96806	0.65370
2891.03941	0.64941
2889.11077	0.64581
2887.18212	0.64263
2885.25348	0.63953
2883.32483	0.63630
2881.39619	0.63289
2879.46754	0.62926
2877.53890	0.62539
2875.61025	0.62147
2873.68160	0.61778
2871.75296	0.61462
2869.82431	0.61225
2867.89567	0.61100
2865.96702	0.61114
2864.03838	0.61271
2862.10973	0.61581
2860.18109	0.62060
2858.25244	0.62701
2856.32380	0.63420
2854.39515	0.64053
2852.46651	0.64387
2850.53786	0.64217
2848.60922	0.63422
2846.68057	0.62038
2844.75192	0.60255
2842.82328	0.58327
2840.89463	0.56484
2838.96599	0.54872
2837.03734	0.53532
2835.10870	0.52439
2833.18005	0.51551
2831.25141	0.50836
2829.32276	0.50277
2827.39412	0.49869
2825.46547	0.49609
2823.53683	0.49470
2821.60818	0.49389
2819.67953	0.49306
2817.75089	0.49175
2815.82224	0.48961
2813.89360	0.48646
2811.96495	0.48260
2810.03631	0.47865
2808.10766	0.47514
2806.17902	0.47232
2804.25037	0.47018
2802.32173	0.46855
2800.39308	0.46704
2798.46444	0.46530
2796.53579	0.46325
2794.60714	0.46107
2792.67850	0.45897
2790.74985	0.45715
2788.82121	0.45567
2786.89256	0.45427
2784.96392	0.45252
2783.03527	0.45014
2781.10663	0.44722
2779.17798	0.44401
2777.24934	0.44086
2775.32069	0.43815
2773.39205	0.43602
2771.46340	0.43421
2769.53475	0.43237
2767.60611	0.43044
2765.67746	0.42870
2763.74882	0.42735
2761.82017	0.42640
2759.89153	0.42565
2757.96288	0.42480
2756.03424	0.42348
2754.10559	0.42148
2752.17695	0.41907
2750.24830	0.41689
2748.31966	0.41553
2746.39101	0.41517
2744.46236	0.41560
2742.53372	0.41647
2740.60507	0.41732
2738.67643	0.41758
2736.74778	0.41690
2734.81914	0.41536
2732.89049	0.41330
2730.96185	0.41100
2729.03320	0.40874
2727.10456	0.40682
2725.17591	0.40540
2723.24727	0.40431
2721.31862	0.40321
2719.38998	0.40191
2717.46133	0.40038
2715.53268	0.39867
2713.60404	0.39690
2711.67539	0.39527
2709.74675	0.39391
2707.81810	0.39268
2705.88946	0.39130
2703.96081	0.38960
2702.03217	0.38759
2700.10352	0.38546
2698.17488	0.38350
2696.24623	0.38211
2694.31759	0.38149
2692.38894	0.38143
2690.46029	0.38137
2688.53165	0.38087
2686.60300	0.37983
2684.67436	0.37843
2682.74571	0.37678
2680.81707	0.37479
2678.88842	0.37235
2676.95978	0.36946
2675.03113	0.36631
2673.10249	0.36330
2671.17384	0.36106
2669.24520	0.36017
2667.31655	0.36069
2665.38790	0.36219
2663.45926	0.36406
2661.53061	0.36572
2659.60197	0.36664
2657.67332	0.36626
2655.74468	0.36425
2653.81603	0.36082
2651.88739	0.35684
2649.95874	0.35344
2648.03010	0.35125
2646.10145	0.35026
2644.17281	0.34999
2642.24416	0.34970
2640.31551	0.34847
2638.38687	0.34569
2636.45822	0.34173
2634.52958	0.33759
2632.60093	0.33425
2630.67229	0.33238
2628.74364	0.33244
2626.81500	0.33434
2624.88635	0.33701
2622.95771	0.33877
2621.02906	0.33839
2619.10042	0.33568
2617.17177	0.33141
2615.24312	0.32695
2613.31448	0.32367
2611.38583	0.32218
2609.45719	0.32193
2607.52854	0.32164
2605.59990	0.32026
2603.67125	0.31751
2601.74261	0.31399
2599.81396	0.31080
2597.88532	0.30892
2595.95667	0.30847
2594.02803	0.30856
2592.09938	0.30812
2590.17074	0.30685
2588.24209	0.30511
2586.31344	0.30352
2584.38480	0.30296
2582.45615	0.30408
2580.52751	0.30651
2578.59886	0.30908
2576.67022	0.31094
2574.74157	0.31201
2572.81293	0.31218
2570.88428	0.31120
2568.95564	0.30906
2567.02699	0.30604
2565.09835	0.30237
2563.16970	0.29859
2561.24105	0.29578
2559.31241	0.29477
2557.38376	0.29537
2555.45512	0.29673
2553.52647	0.29828
2551.59783	0.29982
2549.66918	0.30154
2547.74054	0.30383
2545.81189	0.30669
2543.88325	0.30928
2541.95460	0.31045
2540.02596	0.30986
2538.09731	0.30805
2536.16866	0.30594
2534.24002	0.30435
2532.31137	0.30362
2530.38273	0.30326
2528.45408	0.30254
2526.52544	0.30155
2524.59679	0.30127
2522.66815	0.30246
2520.73950	0.30487
2518.81086	0.30741
2516.88221	0.30870
2514.95357	0.30770
2513.02492	0.30429
2511.09627	0.29959
2509.16763	0.29538
2507.23898	0.29314
2505.31034	0.29335
2503.38169	0.29535
2501.45305	0.29793
2499.52440	0.30002
2497.59576	0.30099
2495.66711	0.30090
2493.73847	0.30052
2491.80982	0.30081
2489.88118	0.30193
2487.95253	0.30287
2486.02389	0.30235
2484.09524	0.29984
2482.16659	0.29579
2480.23795	0.29133
2478.30930	0.28795
2476.38066	0.28666
2474.45201	0.28730
2472.52337	0.28885
2470.59472	0.29054
2468.66608	0.29228
2466.73743	0.29413
2464.80879	0.29624
2462.88014	0.29883
2460.95150	0.30193
2459.02285	0.30512
2457.09420	0.30787
2455.16556	0.30979
2453.23691	0.31049
2451.30827	0.30947
2449.37962	0.30660
2447.45098	0.30244
2445.52233	0.29784
2443.59369	0.29335
2441.66504	0.28938
2439.73640	0.28655
2437.80775	0.28570
2435.87911	0.28742
2433.95046	0.29183
2432.02181	0.29870
2430.09317	0.30722
2428.16452	0.31579
2426.23588	0.32259
2424.30723	0.32646
2422.37859	0.32708
2420.44994	0.32465
2418.52130	0.32006
2416.59265	0.31484
2414.66401	0.31045
2412.73536	0.30744
2410.80672	0.30543
2408.87807	0.30374
2406.94942	0.30195
2405.02078	0.30018
2403.09213	0.29915
2401.16349	0.29952
2399.23484	0.30129
2397.30620	0.30367
2395.37755	0.30561
2393.44891	0.30640
2391.52026	0.30606
2389.59162	0.30523
2387.66297	0.30461
2385.73433	0.30454
2383.80568	0.30493
2381.87703	0.30561
2379.94839	0.30655
2378.01974	0.30782
2376.09110	0.30958
2374.16245	0.31207
2372.23381	0.31551
2370.30516	0.31978
2368.37652	0.32415
2366.44787	0.32738
2364.51923	0.32788
2362.59058	0.32412
2360.66194	0.31552
2358.73329	0.30325
2356.80465	0.29021
2354.87600	0.27970
2352.94735	0.27418
2351.01871	0.27439
2349.09006	0.27929
2347.16142	0.28659
2345.23277	0.29387
2343.30413	0.29983
2341.37548	0.30441
2339.44684	0.30814
2337.51819	0.31132
2335.58955	0.31370
2333.66090	0.31462
2331.73226	0.31337
2329.80361	0.30992
2327.87496	0.30531
2325.94632	0.30130
2324.01767	0.29954
2322.08903	0.30077
2320.16038	0.30441
2318.23174	0.30867
2316.30309	0.31140
2314.37445	0.31104
2312.44580	0.30741
2310.51716	0.30174
2308.58851	0.29616
2306.65987	0.29286
2304.73122	0.29321
2302.80257	0.29715
2300.87393	0.30325
2298.94528	0.30928
2297.01664	0.31292
2295.08799	0.31262
2293.15935	0.30794
2291.23070	0.29955
2289.30206	0.28890
2287.37341	0.27790
2285.44477	0.26854
2283.51612	0.26243
2281.58748	0.26047
2279.65883	0.26274
2277.73018	0.26842
2275.80154	0.27591
2273.87289	0.28307
2271.94425	0.28798
2270.01560	0.28952
2268.08696	0.28774
2266.15831	0.28377
2264.22967	0.27945
2262.30102	0.27660
2260.37238	0.27629
2258.44373	0.27821
2256.51509	0.28044
2254.58644	0.28020
2252.65779	0.27539
2250.72915	0.26569
2248.80050	0.25216
2246.87186	0.23659
2244.94321	0.22141
2243.01457	0.20953
2241.08592	0.20334
2239.15728	0.20431
2237.22863	0.21341
2235.29999	0.23008
2233.37134	0.25002
2231.44270	0.26584
2229.51405	0.27137
2227.58541	0.26544
2225.65676	0.25173
2223.72811	0.23658
2221.79947	0.22642
2219.87082	0.22450
2217.94218	0.22867
2216.01353	0.23341
2214.08489	0.23475
2212.15624	0.23247
2210.22760	0.22837
2208.29895	0.22438
2206.37031	0.22237
2204.44166	0.22338
2202.51302	0.22663
2200.58437	0.23042
2198.65572	0.23374
2196.72708	0.23547
2194.79843	0.23312
2192.86979	0.22496
2190.94114	0.21271
2189.01250	0.20015
2187.08385	0.19002
2185.15521	0.18294
2183.22656	0.17810
2181.29792	0.17352
2179.36927	0.16674
2177.44063	0.15695
2175.51198	0.14486
2173.58333	0.13007
2171.65469	0.11079
2169.72604	0.08678
2167.79740	0.06170
2165.86875	0.04209
2163.94011	0.03385
2162.01146	0.03857
2160.08282	0.05144
2158.15417	0.06319
2156.22553	0.06649
2154.29688	0.06182
2152.36824	0.05705
2150.43959	0.06093
2148.51094	0.07694
2146.58230	0.10202
2144.65365	0.12935
2142.72501	0.15272
2140.79636	0.17019
2138.86772	0.18425
2136.93907	0.19825
2135.01043	0.21246
2133.08178	0.22407
2131.15314	0.23053
2129.22449	0.23142
2127.29585	0.22815
2125.36720	0.22311
2123.43856	0.21889
2121.50991	0.21716
2119.58126	0.21794
2117.65262	0.22025
2115.72397	0.22317
2113.79533	0.22565
2111.86668	0.22567
2109.93804	0.22155
2108.00939	0.21383
2106.08075	0.20507
2104.15210	0.19779
2102.22346	0.19337
2100.29481	0.19233
2098.36617	0.19449
2096.43752	0.19838
2094.50887	0.20193
2092.58023	0.20382
2090.65158	0.20380
2088.72294	0.20223
2086.79429	0.19978
2084.86565	0.19742
2082.93700	0.19597
2081.00836	0.19542
2079.07971	0.19486
2077.15107	0.19306
2075.22242	0.18937
2073.29378	0.18425
2071.36513	0.17907
2069.43648	0.17527
2067.50784	0.17348
2065.57919	0.17307
2063.65055	0.17244
2061.72190	0.17000
2059.79326	0.16521
2057.86461	0.15886
2055.93597	0.15252
2054.00732	0.14749
2052.07868	0.14427
2050.15003	0.14254
2048.22139	0.14184
2046.29274	0.14256
2044.36409	0.14612
2042.43545	0.15333
2040.50680	0.16234
2038.57816	0.16836
2036.64951	0.16568
2034.72087	0.15015
2032.79222	0.12132
2030.86358	0.08361
2028.93493	0.04548
2027.00629	0.01587
2025.07764	0.00042
2023.14900	0.00000
2021.22035	0.01164
2019.29170	0.03019
2017.36306	0.04994
2015.43441	0.06620
2013.50577	0.07542
2011.57712	0.07782
2009.64848	0.07442
2007.71983	0.06798
2005.79119	0.06296
2003.86254	0.06459
2001.93390	0.07676
2000.00525	0.09974
1998.07661	0.12912
1996.14796	0.15673
1994.21932	0.17352
1992.29067	0.17354
1990.36202	0.15707
1988.43338	0.13111
1986.50473	0.10684
1984.57609	0.09534
1982.64744	0.10318
1980.71880	0.12987
1978.79015	0.16852
1976.86151	0.20881
1974.93286	0.24078
1973.00422	0.25794
1971.07557	0.25905
1969.14693	0.24774
1967.21828	0.23047
1965.28963	0.21401
1963.36099	0.20352
1961.43234	0.20153
1959.50370	0.20779
1957.57505	0.21974
1955.64641	0.23344
1953.71776	0.24451
1951.78912	0.24924
1949.86047	0.24585
1947.93183	0.23517
1946.00318	0.22028
1944.07454	0.20533
1942.14589	0.19376
1940.21724	0.18706
1938.28860	0.18454
1936.35995	0.18447
1934.43131	0.18548
1932.50266	0.18717
1930.57402	0.18986
1928.64537	0.19389
1926.71673	0.19899
1924.78808	0.20415
1922.85944	0.20821
1920.93079	0.21056
1919.00215	0.21137
1917.07350	0.21129
1915.14485	0.21103
1913.21621	0.21105
1911.28756	0.21138
1909.35892	0.21174
1907.43027	0.21168
1905.50163	0.21076
1903.57298	0.20859
1901.64434	0.20499
1899.71569	0.20017
1897.78705	0.19482
1895.85840	0.19008
1893.92976	0.18730
1892.00111	0.18742
1890.07246	0.19053
1888.14382	0.19574
1886.21517	0.20163
1884.28653	0.20686
1882.35788	0.21059
1880.42924	0.21269
1878.50059	0.21348
1876.57195	0.21331
1874.64330	0.21233
1872.71466	0.21053
1870.78601	0.20816
1868.85737	0.20581
1866.92872	0.20421
1865.00008	0.20374
1863.07143	0.20422
1861.14278	0.20488
1859.21414	0.20476
1857.28549	0.20326
1855.35685	0.20052
1853.42820	0.19728
1851.49956	0.19445
1849.57091	0.19264
1847.64227	0.19199
1845.71362	0.19221
1843.78498	0.19287
1841.85633	0.19359
1839.92769	0.19423
1837.99904	0.19478
1836.07039	0.19528
1834.14175	0.19578
1832.21310	0.19629
1830.28446	0.19680
1828.35581	0.19722
1826.42717	0.19744
1824.49852	0.19735
1822.56988	0.19686
1820.64123	0.19602
1818.71259	0.19502
1816.78394	0.19404
1814.85530	0.19320
1812.92665	0.19256
1810.99800	0.19219
1809.06936	0.19213
1807.14071	0.19235
1805.21207	0.19276
1803.28342	0.19322
1801.35478	0.19362
1799.42613	0.19396
1797.49749	0.19438
1795.56884	0.19513
1793.64020	0.19631
1791.71155	0.19779
1789.78291	0.19920
1787.85426	0.20015
1785.92561	0.20049
1783.99697	0.20043
1782.06832	0.20042
1780.13968	0.20089
1778.21103	0.20195
1776.28239	0.20341
1774.35374	0.20488
1772.42510	0.20614
1770.49645	0.20728
1768.56781	0.20870
1766.63916	0.21082
1764.71052	0.21381
1762.78187	0.21745
1760.85322	0.22128
1758.92458	0.22498
1756.99593	0.22859
1755.06729	0.23255
1753.13864	0.23749
1751.21000	0.24385
1749.28135	0.25167
1747.35271	0.26053
1745.42406	0.26975
1743.49542	0.27864
1741.56677	0.28670
1739.63813	0.29376
1737.70948	0.29983
1735.78084	0.30503
1733.85219	0.30951
1731.92354	0.31358
1729.99490	0.31768
1728.06625	0.32234
1726.13761	0.32792
1724.20896	0.33437
1722.28032	0.34122
1720.35167	0.34767
1718.42303	0.35303
1716.49438	0.35709
1714.56574	0.36036
1712.63709	0.36383
1710.70845	0.36851
1708.77980	0.37507
1706.85115	0.38364
1704.92251	0.39399
1702.99386	0.40570
1701.06522	0.41843
1699.13657	0.43201
1697.20793	0.44652
1695.27928	0.46222
1693.35064	0.47943
1691.42199	0.49846
1689.49335	0.51945
1687.56470	0.54231
1685.63606	0.56660
1683.70741	0.59167
1681.77876	0.61681
1679.85012	0.64145
1677.92147	0.66523
1675.99283	0.68798
1674.06418	0.70969
1672.13554	0.73052
1670.20689	0.75076
1668.27825	0.77076
1666.34960	0.79073
1664.42096	0.81072
1662.49231	0.83042
1660.56367	0.84925
1658.63502	0.86653
1656.70637	0.88170
1654.77773	0.89450
1652.84908	0.90498
1650.92044	0.91344
1648.99179	0.92020
1647.06315	0.92541
1645.13450	0.92899
1643.20586	0.93065
1641.27721	0.93009
1639.34857	0.92713
1637.41992	0.92192
1635.49128	0.91490
1633.56263	0.90662
1631.63399	0.89761
1629.70534	0.88825
1627.77669	0.87883
1625.84805	0.86955
1623.91940	0.86062
1621.99076	0.85224
1620.06211	0.84457
1618.13347	0.83765
1616.20482	0.83141
1614.27618	0.82571
1612.34753	0.82043
1610.41889	0.81551
1608.49024	0.81086
1606.56160	0.80636
1604.63295	0.80186
1602.70430	0.79718
1600.77566	0.79210
1598.84701	0.78646
1596.91837	0.78018
1594.98972	0.77327
1593.06108	0.76579
1591.13243	0.75782
1589.20379	0.74951
1587.27514	0.74108
1585.34650	0.73273
1583.41785	0.72463
1581.48921	0.71683
1579.56056	0.70924
1577.63191	0.70165
1575.70327	0.69383
1573.77462	0.68576
1571.84598	0.67771
1569.91733	0.67018
1567.98869	0.66371
1566.06004	0.65868
1564.13140	0.65502
1562.20275	0.65219
1560.27411	0.64934
1558.34546	0.64559
1556.41682	0.64040
1554.48817	0.63364
1552.55952	0.62560
1550.63088	0.61675
1548.70223	0.60756
1546.77359	0.59829
1544.84494	0.58894
1542.91630	0.57929
1540.98765	0.56911
1539.05901	0.55826
1537.13036	0.54676
1535.20172	0.53487
1533.27307	0.52302
1531.34443	0.51178
1529.41578	0.50168
1527.48713	0.49303
1525.55849	0.48581
1523.62984	0.47966
1521.70120	0.47386
1519.77255	0.46753
1517.84391	0.45989
1515.91526	0.45047
1513.98662	0.43919
1512.05797	0.42640
1510.12933	0.41268
1508.20068	0.39862
1506.27204	0.38470
1504.34339	0.37117
1502.41475	0.35817
1500.48610	0.34576
1498.55745	0.33407
1496.62881	0.32331
1494.70016	0.31370
1492.77152	0.30542
1490.84287	0.29855
1488.91423	0.29313
1486.98558	0.28926
1485.05694	0.28723
1483.12829	0.28749
1481.19965	0.29050
1479.27100	0.29658
1477.34236	0.30567
1475.41371	0.31720
1473.48506	0.33019
1471.55642	0.34339
1469.62777	0.35564
1467.69913	0.36604
1465.77048	0.37409
1463.84184	0.37966
1461.91319	0.38289
1459.98455	0.38415
1458.05590	0.38389
1456.12726	0.38259
1454.19861	0.38073
1452.26997	0.37868
1450.34132	0.37663
1448.41267	0.37460
1446.48403	0.37253
1444.55538	0.37041
1442.62674	0.36837
1440.69809	0.36671
1438.76945	0.36588
1436.84080	0.36639
1434.91216	0.36868
1432.98351	0.37300
1431.05487	0.37936
1429.12622	0.38748
1427.19758	0.39686
1425.26893	0.40690
1423.34028	0.41701
1421.41164	0.42679
1419.48299	0.43597
1417.55435	0.44442
1415.62570	0.45213
1413.69706	0.45913
1411.76841	0.46548
1409.83977	0.47124
1407.91112	0.47642
1405.98248	0.48088
1404.05383	0.48428
1402.12519	0.48619
1400.19654	0.48630
1398.26789	0.48462
1396.33925	0.48149
1394.41060	0.47751
1392.48196	0.47327
1390.55331	0.46920
1388.62467	0.46539
1386.69602	0.46170
1384.76738	0.45789
1382.83873	0.45377
1380.91009	0.44931
1378.98144	0.44454
1377.05280	0.43957
1375.12415	0.43445
1373.19551	0.42914
1371.26686	0.42340
1369.33821	0.41695
1367.40957	0.40959
1365.48092	0.40143
1363.55228	0.39292
1361.62363	0.38474
1359.69499	0.37758
1357.76634	0.37178
1355.83770	0.36721
1353.90905	0.36334
1351.98041	0.35952
1350.05176	0.35528
1348.12312	0.35055
1346.19447	0.34558
1344.26582	0.34077
1342.33718	0.33642
1340.40853	0.33267
1338.47989	0.32948
1336.55124	0.32668
1334.62260	0.32411
1332.69395	0.32166
1330.76531	0.31930
1328.83666	0.31709
1326.90802	0.31517
1324.97937	0.31373
1323.05073	0.31288
1321.12208	0.31260
1319.19343	0.31268
1317.26479	0.31277
1315.33614	0.31246
1313.40750	0.31140
1311.47885	0.30938
1309.55021	0.30640
1307.62156	0.30274
1305.69292	0.29889
1303.76427	0.29543
1301.83563	0.29288
1299.90698	0.29151
1297.97834	0.29138
1296.04969	0.29229
1294.12104	0.29395
1292.19240	0.29607
1290.26375	0.29840
1288.33511	0.30081
1286.40646	0.30330
1284.47782	0.30595
1282.54917	0.30895
1280.62053	0.31241
1278.69188	0.31631
1276.76324	0.32048
1274.83459	0.32470
1272.90595	0.32878
1270.97730	0.33267
1269.04866	0.33641
1267.12001	0.33997
1265.19136	0.34320
1263.26272	0.34585
1261.33407	0.34775
1259.40543	0.34891
1257.47678	0.34956
1255.54814	0.35008
1253.61949	0.35080
1251.69085	0.35180
1249.76220	0.35296
1247.83356	0.35398
1245.90491	0.35467
1243.97627	0.35502
1242.04762	0.35522
1240.11897	0.35552
1238.19033	0.35606
1236.26168	0.35676
1234.33304	0.35734
1232.40439	0.35752
1230.47575	0.35725
1228.54710	0.35676
1226.61846	0.35654
1224.68981	0.35707
1222.76117	0.35870
1220.83252	0.36147
1218.90388	0.36511
1216.97523	0.36922
1215.04658	0.37332
1213.11794	0.37703
1211.18929	0.38016
1209.26065	0.38282
1207.33200	0.38536
1205.40336	0.38826
1203.47471	0.39193
1201.54607	0.39667
1199.61742	0.40258
1197.68878	0.40961
1195.76013	0.41768
1193.83149	0.42690
1191.90284	0.43748
1189.97419	0.44960
1188.04555	0.46335
1186.11690	0.47878
1184.18826	0.49576
1182.25961	0.51408
1180.33097	0.53366
1178.40232	0.55485
1176.47368	0.57827
1174.54503	0.60438
1172.61639	0.63315
1170.68774	0.66380
1168.75910	0.69463
1166.83045	0.72340
1164.90180	0.74818
1162.97316	0.76831
1161.04451	0.78468
1159.11587	0.79921
1157.18722	0.81396
1155.25858	0.83032
1153.32993	0.84861
1151.40129	0.86830
1149.47264	0.88872
1147.54400	0.90987
1145.61535	0.93260
1143.68671	0.95808
1141.75806	0.98703
1139.82942	1.01952
1137.90077	1.05493
1135.97212	1.09202
1134.04348	1.12951
1132.11483	1.16658
1130.18619	1.20291
1128.25754	1.23849
1126.32890	1.27366
1124.40025	1.30901
1122.47161	1.34486
1120.54296	1.38091
1118.61432	1.41640
1116.68567	1.45047
1114.75703	1.48250
1112.82838	1.51237
1110.89973	1.54062
1108.97109	1.56808
1107.04244	1.59536
1105.11380	1.62270
1103.18515	1.65016
1101.25651	1.67791
1099.32786	1.70638
1097.39922	1.73631
1095.47057	1.76837
1093.54193	1.80257
1091.61328	1.83805
1089.68464	1.87338
1087.75599	1.90691
1085.82734	1.93686
1083.89870	1.96161
1081.97005	1.98013
1080.04141	1.99225
1078.11276	1.99852
1076.18412	2.00000
1074.25547	1.99829
1072.32683	1.99513
1070.39818	1.99167
1068.46954	1.98811
1066.54089	1.98424
1064.61225	1.97999
1062.68360	1.97511
1060.75495	1.96918
1058.82631	1.96192
1056.89766	1.95353
1054.96902	1.94436
1053.04037	1.93487
1051.11173	1.92600
1049.18308	1.91913
1047.25444	1.91551
1045.32579	1.91586
1043.39715	1.92044
1041.46850	1.92889
1039.53986	1.93998
1037.61121	1.95174
1035.68256	1.96193
1033.75392	1.96848
1031.82527	1.96978
1029.89663	1.96501
1027.96798	1.95432
1026.03934	1.93862
1024.11069	1.91929
1022.18205	1.89788
1020.25340	1.87545
1018.32476	1.85237
1016.39611	1.82845
1014.46747	1.80355
1012.53882	1.77791
1010.61018	1.75224
1008.68153	1.72748
1006.75288	1.70430
1004.82424	1.68266
1002.89559	1.66201
1000.96695	1.64192
999.03830	1.62242
997.10966	1.60407
995.18101	1.58754
993.25237	1.57293
991.32372	1.55933
989.39508	1.54484
987.46643	1.52708
985.53779	1.50369
983.60914	1.47288
981.68049	1.43390
979.75185	1.38716
977.82320	1.33389
975.89456	1.27611
973.96591	1.21635
972.03727	1.15710
970.10862	1.10020
968.17998	1.04662
966.25133	0.99673
964.32269	0.95043
962.39404	0.90741
960.46540	0.86744
958.53675	0.83059
956.60810	0.79718
954.67946	0.76757
952.75081	0.74201
950.82217	0.72050
948.89352	0.70300
946.96488	0.68922
945.03623	0.67831
943.10759	0.66887
941.17894	0.65969
939.25030	0.65015
937.32165	0.64013
935.39301	0.63009
933.46436	0.62102
931.53571	0.61353
929.60707	0.60709
927.67842	0.60057
925.74978	0.59340
923.82113	0.58598
921.89249	0.57943
919.96384	0.57518
918.03520	0.57387
916.10655	0.57438
914.17791	0.57407
912.24926	0.57056
910.32062	0.56308
908.39197	0.55227
906.46333	0.53950
904.53468	0.52627
902.60603	0.51352
900.67739	0.50128
898.74874	0.48927
896.82010	0.47789
894.89145	0.46783
892.96281	0.45898
891.03416	0.45038
889.10552	0.44127
887.17687	0.43168
885.24823	0.42211
883.31958	0.41337
881.39094	0.40626
879.46229	0.40086
877.53364	0.39621
875.60500	0.39118
873.67635	0.38558
871.74771	0.38003
869.81906	0.37487
867.89042	0.36956
865.96177	0.36307
864.03313	0.35468
862.10448	0.34437
860.17584	0.33296
858.24719	0.32202
856.31855	0.31331
854.38990	0.30774
852.46125	0.30473
850.53261	0.30289
848.60396	0.30105
846.67532	0.29864
844.74667	0.29550
842.81803	0.29188
840.88938	0.28845
838.96074	0.28581
837.03209	0.28399
835.10345	0.28267
833.17480	0.28150
831.24616	0.28017
829.31751	0.27847
827.38886	0.27616
825.46022	0.27285
823.53157	0.26805
821.60293	0.26165
819.67428	0.25440
817.74564	0.24782
815.81699	0.24407
813.88835	0.24591
811.95970	0.25593
810.03106	0.27571
808.10241	0.30520
806.17377	0.34219
804.24512	0.38231
802.31647	0.41993
800.38783	0.44976
798.45918	0.46833
796.53054	0.47484
794.60189	0.47130
792.67325	0.46178
790.74460	0.45088
788.81596	0.44232
786.88731	0.43852
784.95867	0.44015
783.03002	0.44597
781.10138	0.45323
779.17273	0.45877
777.24409	0.46003
775.31544	0.45584
773.38679	0.44663
771.45815	0.43400
769.52950	0.41944
767.60086	0.40386
765.67221	0.38826
763.74357	0.37424
761.81492	0.36355
759.88628	0.35767
757.95763	0.35742
756.02899	0.36223
754.10034	0.36944
752.17170	0.37532
750.24305	0.37717
748.31440	0.37411
746.38576	0.36672
744.45711	0.35667
742.52847	0.34638
740.59982	0.33800
738.67118	0.33239
736.74253	0.32927
734.81389	0.32783
732.88524	0.32708
730.95660	0.32610
729.02795	0.32448
727.09931	0.32247
725.17066	0.32064
723.24201	0.31938
721.31337	0.31881
719.38472	0.31880
717.45608	0.31916
715.52743	0.31974
713.59879	0.32054
711.67014	0.32160
709.74150	0.32290
707.81285	0.32451
705.88421	0.32677
703.95556	0.33033
702.02692	0.33597
700.09827	0.34396
698.16962	0.35358
696.24098	0.36301
694.31233	0.36999
692.38369	0.37289
690.45504	0.37152
688.52640	0.36715
686.59775	0.36172
684.66911	0.35692
682.74046	0.35342
680.81182	0.35094
678.88317	0.34867
676.95453	0.34594
675.02588	0.34253
673.09723	0.33862
671.16859	0.33455
669.23994	0.33059
667.31130	0.32684
665.38265	0.32342
663.45401	0.32059
661.52536	0.31861
659.59672	0.31773
657.66807	0.31810
655.73943	0.31973
653.81078	0.32230
651.88214	0.32513
649.95349	0.32734
648.02485	0.32826
646.09620	0.32773
644.16755	0.32626
642.23891	0.32492
640.31026	0.32500
638.38162	0.32750
636.45297	0.33287
634.52433	0.34071
632.59568	0.34991
630.66704	0.35896
628.73839	0.36679
626.80975	0.37377
624.88110	0.38189
622.95246	0.39350
621.02381	0.40971
619.09516	0.42982
617.16652	0.45198
615.23787	0.47418
613.30923	0.49526
611.38058	0.51554
609.45194	0.53559
607.52329	0.55342
605.59465	0.56350
603.66600	0.55940
601.73736	0.53813
599.80871	0.50245
597.88007	0.46050
595.95142	0.42322
594.02277	0.40038
592.09413	0.39672
590.16548	0.41082
588.23684	0.43711
586.30819	0.46900
584.37955	0.50094
582.45090	0.52927
580.52226	0.55223
578.59361	0.56974
576.66497	0.58294
574.73632	0.59395
572.80768	0.60545
570.87903	0.61998
568.95038	0.63906
567.02174	0.66279
565.09309	0.68988
563.16445	0.71842
561.23580	0.74686
559.30716	0.77473
557.37851	0.80255
555.44987	0.83100
553.52122	0.85988
551.59258	0.88785
549.66393	0.91307
547.73529	0.93448
545.80664	0.95286
543.87800	0.97069
541.94935	0.99112
540.02070	1.01636
538.09206	1.04654
536.16341	1.07958
534.23477	1.11185
532.30612	1.13945
530.37748	1.15936
528.44883	1.17011
526.52019	1.17160
524.59154	1.16478
522.66290	1.15115
520.73425	1.13217
518.80561	1.10879
516.87696	1.08144
514.94831	1.05076
513.01967	1.01815
511.09102	0.98581
509.16238	0.95617
507.23373	0.93136
505.30509	0.91277
503.37644	0.90081
501.44780	0.89534
499.51915	0.89630
497.59051	0.90410
495.66186	0.91925
493.73322	0.94194
491.80457	0.97211
489.87592	1.00991
487.94728	1.05575
486.01863	1.10986
484.08999	1.17126
482.16134	1.23697
480.23270	1.30194
478.30405	1.36028
476.37541	1.40709
474.44676	1.44012
472.51812	1.46009
470.58947	1.46942
468.66083	1.47006
466.73218	1.46224
464.80353	1.44471
462.87489	1.41623
460.94624	1.37696
459.01760	1.32912
457.08895	1.27648
455.16031	1.22294
453.23166	1.17099
451.30302	1.12111
449.37437	1.07258
447.44573	1.02468
445.51708	0.97774
443.58844	0.93323
441.65979	0.89334
439.73114	0.86006
437.80250	0.83433
435.87385	0.81570
433.94521	0.80255
432.01656	0.79279
430.08792	0.78444
428.15927	0.77596
426.23063	0.76634
424.30198	0.75497
422.37334	0.74142
420.44469	0.72530
418.51605	0.70601
416.58740	0.68291
414.65876	0.65578
412.73011	0.62582
410.80146	0.59645
408.87282	0.57315
406.94417	0.56179
405.01553	0.56604
403.08688	0.58508
401.15824	0.61253
399.22959	0.63788
397.30095	0.64999
395.37230	0.64146
393.44366	0.61128
391.51501	0.56503
389.58637	0.51268
387.65772	0.46539
385.72907	0.43229
383.80043	0.41820
381.87178	0.42306
379.94314	0.44288
378.01449	0.47144
376.08585	0.50206
374.15720	0.52904
372.22856	0.54870
370.29991	0.55951
368.37127	0.56121
366.44262	0.55407
364.51398	0.53883
362.58533	0.51706
360.65668	0.49118
358.72804	0.46433
356.79939	0.43981
354.87075	0.41987
352.94210	0.40456
351.01346	0.39162
349.08481	0.37772
347.15617	0.36006
345.22752	0.33745
343.29888	0.31073
341.37023	0.28253
339.44159	0.25632
337.51294	0.23489
335.58429	0.21924
333.65565	0.20841
331.72700	0.20025
329.79836	0.19225
327.86971	0.18265
325.94107	0.17127
324.01242	0.15950
322.08378	0.14944
320.15513	0.14263
318.22649	0.13962
316.29784	0.13989
314.36920	0.14191
312.44055	0.14339
310.51190	0.14198
308.58326	0.13595
306.65461	0.12461
304.72597	0.10879
302.79732	0.09103
300.86868	0.07482
298.94003	0.06286
297.01139	0.05591
295.08274	0.05262
293.15410	0.05051
291.22545	0.04745
289.29681	0.04317
287.36816	0.03951
285.43952	0.03895
283.51087	0.04332
281.58222	0.05107
279.65358	0.05930
277.72493	0.06482
275.79629	0.06620
273.86764	0.06497
271.93900	0.06494
270.01035	0.06990
268.08171	0.08161
266.15306	0.09906
264.22442	0.11877
262.29577	0.13616
260.36713	0.14737
258.43848	0.15060
256.50983	0.14620
254.58119	0.13620
252.65254	0.12370
250.72390	0.11204
248.79525	0.10403
246.86661	0.10138
244.93796	0.10414
243.00932	0.11024
241.08067	0.11599
239.15203	0.11761
237.22338	0.11307
235.29474	0.10275
233.36609	0.08892
231.43744	0.07464
229.50880	0.06269
227.58015	0.05450
225.65151	0.05012
223.72286	0.04940
221.79422	0.05287
219.86557	0.06089
217.93693	0.07170
216.00828	0.08086
214.07964	0.08310
212.15099	0.07515
210.22235	0.05780
208.29370	0.03623
206.36505	0.01820
204.43641	0.01076
202.50776	0.01710
200.57912	0.03586
198.65047	0.06277
196.72183	0.09302
194.79318	0.12243
192.86454	0.14764
190.93589	0.16597
189.00725	0.17571
187.07860	0.17672
185.14996	0.17053
183.22131	0.15909
181.29267	0.14340
179.36402	0.12398
177.43537	0.10240
175.50673	0.08137
173.57808	0.06346
171.64944	0.05001
169.72079	0.04061
167.79215	0.03329
165.86350	0.02705
163.93486	0.02647
162.00621	0.05644
160.07757	0.10702
158.14892	0.16763
156.22028	0.22639
154.29163	0.22639
152.36298	0.22639
150.43434	0.22639
148.50569	0.22639
