4497.60101	0.13399
4495.67236	0.13399
4493.74372	0.13399
4491.81507	0.13399
4489.88643	0.13399
4487.95778	0.12514
4486.02914	0.11624
4484.10049	0.11123
4482.17185	0.11378
4480.24320	0.12606
4478.31455	0.14429
4476.38591	0.16059
4474.45726	0.16755
4472.52862	0.16282
4470.59997	0.14943
4468.67133	0.13362
4466.74268	0.12248
4464.81404	0.12127
4462.88539	0.13064
4460.95675	0.14611
4459.02810	0.16126
4457.09946	0.17156
4455.17081	0.17595
4453.24216	0.17599
4451.31352	0.17429
4449.38487	0.17359
4447.45623	0.17535
4445.52758	0.17850
4443.59894	0.18050
4441.67029	0.17996
4439.74165	0.17771
4437.81300	0.17542
4435.88436	0.17356
4433.95571	0.17072
4432.02707	0.16466
4430.09842	0.15433
4428.16978	0.14111
4426.24113	0.12834
4424.31248	0.11965
4422.38384	0.11722
4420.45519	0.12049
4418.52655	0.12627
4416.59790	0.13136
4414.66926	0.13505
4412.74061	0.13864
4410.81197	0.14319
4408.88332	0.14815
4406.95468	0.15189
4405.02603	0.15300
4403.09739	0.15093
4401.16874	0.14635
4399.24009	0.14103
4397.31145	0.13697
4395.38280	0.13536
4393.45416	0.13598
4391.52551	0.13788
4389.59687	0.14062
4387.66822	0.14463
4385.73958	0.15014
4383.81093	0.15589
4381.88229	0.15947
4379.95364	0.15902
4378.02500	0.15476
4376.09635	0.14918
4374.16770	0.14601
4372.23906	0.14881
4370.31041	0.15891
4368.38177	0.17400
4366.45312	0.18884
4364.52448	0.19806
4362.59583	0.19877
4360.66719	0.19143
4358.73854	0.17875
4356.80990	0.16458
4354.88125	0.15285
4352.95261	0.14600
4351.02396	0.14351
4349.09531	0.14248
4347.16667	0.14007
4345.23802	0.13557
4343.30938	0.13019
4341.38073	0.12586
4339.45209	0.12475
4337.52344	0.12861
4335.59480	0.13724
4333.66615	0.14834
4331.73751	0.15909
4329.80886	0.16765
4327.88022	0.17277
4325.95157	0.17329
4324.02292	0.16931
4322.09428	0.16313
4320.16563	0.15805
4318.23699	0.15644
4316.30834	0.15919
4314.37970	0.16621
4312.45105	0.17616
4310.52241	0.18611
4308.59376	0.19248
4306.66512	0.19257
4304.73647	0.18518
4302.80783	0.17059
4300.87918	0.15141
4298.95054	0.13322
4297.02189	0.12252
4295.09324	0.12333
4293.16460	0.13572
4291.23595	0.15608
4289.30731	0.17788
4287.37866	0.19347
4285.45002	0.19716
4283.52137	0.18786
4281.59273	0.16920
4279.66408	0.14758
4277.73544	0.12973
4275.80679	0.12002
4273.87815	0.11863
4271.94950	0.12205
4270.02085	0.12564
4268.09221	0.12625
4266.16356	0.12404
4264.23492	0.12201
4262.30627	0.12342
4260.37763	0.12932
4258.44898	0.13854
4256.52034	0.14911
4254.59169	0.15888
4252.66305	0.16571
4250.73440	0.16864
4248.80576	0.16834
4246.87711	0.16582
4244.94846	0.16166
4243.01982	0.15707
4241.09117	0.15409
4239.16253	0.15352
4237.23388	0.15397
4235.30524	0.15382
4233.37659	0.15307
4231.44795	0.15290
4229.51930	0.15435
4227.59066	0.15803
4225.66201	0.16368
4223.73337	0.16915
4221.80472	0.17093
4219.87607	0.16686
4217.94743	0.15842
4216.01878	0.15000
4214.09014	0.14579
4212.16149	0.14735
4210.23285	0.15367
4208.30420	0.16188
4206.37556	0.16826
4204.44691	0.17009
4202.51827	0.16782
4200.58962	0.16417
4198.66098	0.16089
4196.73233	0.15729
4194.80368	0.15187
4192.87504	0.14440
4190.94639	0.13598
4189.01775	0.12857
4187.08910	0.12444
4185.16046	0.12508
4183.23181	0.13008
4181.30317	0.13740
4179.37452	0.14478
4177.44588	0.15093
4175.51723	0.15557
4173.58859	0.15914
4171.65994	0.16230
4169.73130	0.16547
4167.80265	0.16837
4165.87400	0.17012
4163.94536	0.16961
4162.01671	0.16632
4160.08807	0.16139
4158.15942	0.15797
4156.23078	0.15962
4154.30213	0.16781
4152.37349	0.18061
4150.44484	0.19350
4148.51620	0.20139
4146.58755	0.20071
4144.65891	0.19092
4142.73026	0.17485
4140.80161	0.15729
4138.87297	0.14300
4136.94432	0.13518
4135.01568	0.13456
4133.08703	0.13952
4131.15839	0.14747
4129.22974	0.15609
4127.30110	0.16406
4125.37245	0.17115
4123.44381	0.17758
4121.51516	0.18284
4119.58652	0.18477
4117.65787	0.18033
4115.72922	0.16809
4113.80058	0.15006
4111.87193	0.13118
4109.94329	0.11684
4108.01464	0.11035
4106.08600	0.11197
4104.15735	0.11946
4102.22871	0.12933
4100.30006	0.13846
4098.37142	0.14540
4096.44277	0.15007
4094.51413	0.15266
4092.58548	0.15311
4090.65683	0.15163
4088.72819	0.14905
4086.79954	0.14600
4084.87090	0.14223
4082.94225	0.13742
4081.01361	0.13236
4079.08496	0.12925
4077.15632	0.13074
4075.22767	0.13823
4073.29903	0.15033
4071.37038	0.16302
4069.44174	0.17162
4067.51309	0.17346
4065.58444	0.16926
4063.65580	0.16227
4061.72715	0.15598
4059.79851	0.15208
4057.86986	0.15006
4055.94122	0.14883
4054.01257	0.14823
4052.08393	0.14910
4050.15528	0.15220
4048.22664	0.15708
4046.29799	0.16182
4044.36935	0.16367
4042.44070	0.16102
4040.51206	0.15510
4038.58341	0.14920
4036.65476	0.14645
4034.72612	0.14829
4032.79747	0.15414
4030.86883	0.16139
4028.94018	0.16631
4027.01154	0.16677
4025.08289	0.16392
4023.15425	0.16081
4021.22560	0.16000
4019.29696	0.16216
4017.36831	0.16597
4015.43967	0.16859
4013.51102	0.16710
4011.58237	0.16047
4009.65373	0.15064
4007.72508	0.14147
4005.79644	0.13663
4003.86779	0.13764
4001.93915	0.14349
4000.01050	0.15153
3998.08186	0.15843
3996.15321	0.16111
3994.22457	0.15800
3992.29592	0.14965
3990.36728	0.13830
3988.43863	0.12664
3986.50998	0.11698
3984.58134	0.11092
3982.65269	0.10887
3980.72405	0.10992
3978.79540	0.11239
3976.86676	0.11471
3974.93811	0.11611
3973.00947	0.11664
3971.08082	0.11685
3969.15218	0.11732
3967.22353	0.11828
3965.29489	0.11938
3963.36624	0.11991
3961.43759	0.11939
3959.50895	0.11815
3957.58030	0.11720
3955.65166	0.11773
3953.72301	0.12052
3951.79437	0.12548
3949.86572	0.13140
3947.93708	0.13633
3946.00843	0.13844
3944.07979	0.13690
3942.15114	0.13229
3940.22250	0.12648
3938.29385	0.12196
3936.36521	0.12082
3934.43656	0.12380
3932.50791	0.13018
3930.57927	0.13836
3928.65062	0.14659
3926.72198	0.15343
3924.79333	0.15795
3922.86469	0.15960
3920.93604	0.15809
3919.00740	0.15372
3917.07875	0.14797
3915.15011	0.14350
3913.22146	0.14352
3911.29282	0.15034
3909.36417	0.16415
3907.43552	0.18233
3905.50688	0.20019
3903.57823	0.21297
3901.64959	0.21784
3899.72094	0.21488
3897.79230	0.20676
3895.86365	0.19750
3893.93501	0.19054
3892.00636	0.18738
3890.07772	0.18721
3888.14907	0.18781
3886.22043	0.18680
3884.29178	0.18290
3882.36313	0.17664
3880.43449	0.17023
3878.50584	0.16649
3876.57720	0.16766
3874.64855	0.17430
3872.71991	0.18473
3870.79126	0.19535
3868.86262	0.20238
3866.93397	0.20415
3865.00533	0.20226
3863.07668	0.20070
3861.14804	0.20346
3859.21939	0.21207
3857.29074	0.22402
3855.36210	0.23346
3853.43345	0.23412
3851.50481	0.22341
3849.57616	0.20450
3847.64752	0.18463
3845.71887	0.17131
3843.79023	0.16886
3841.86158	0.17685
3839.93294	0.19047
3838.00429	0.20282
3836.07565	0.20834
3834.14700	0.20538
3832.21835	0.19638
3830.28971	0.18612
3828.36106	0.17962
3826.43242	0.18017
3824.50377	0.18764
3822.57513	0.19839
3820.64648	0.20700
3818.71784	0.20918
3816.78919	0.20364
3814.86055	0.19260
3812.93190	0.18087
3811.00326	0.17373
3809.07461	0.17437
3807.14597	0.18258
3805.21732	0.19509
3803.28867	0.20701
3801.36003	0.21357
3799.43138	0.21186
3797.50274	0.20179
3795.57409	0.18583
3793.64545	0.16784
3791.71680	0.15188
3789.78816	0.14111
3787.85951	0.13711
3785.93087	0.13968
3784.00222	0.14722
3782.07358	0.15729
3780.14493	0.16706
3778.21628	0.17410
3776.28764	0.17707
3774.35899	0.17604
3772.43035	0.17215
3770.50170	0.16707
3768.57306	0.16231
3766.64441	0.15883
3764.71577	0.15734
3762.78712	0.15888
3760.85848	0.16500
3758.92983	0.17727
3757.00119	0.19643
3755.07254	0.22144
3753.14389	0.24877
3751.21525	0.27304
3749.28660	0.28913
3747.35796	0.29446
3745.42931	0.28979
3743.50067	0.27863
3741.57202	0.26569
3739.64338	0.25464
3737.71473	0.24629
3735.78609	0.23875
3733.85744	0.22941
3731.92880	0.21706
3730.00015	0.20253
3728.07150	0.18810
3726.14286	0.17645
3724.21421	0.16977
3722.28557	0.16916
3720.35692	0.17455
3718.42828	0.18482
3716.49963	0.19788
3714.57099	0.21075
3712.64234	0.21988
3710.71370	0.22231
3708.78505	0.21711
3706.85641	0.20610
3704.92776	0.19313
3702.99911	0.18261
3701.07047	0.17823
3699.14182	0.18200
3697.21318	0.19331
3695.28453	0.20889
3693.35589	0.22403
3691.42724	0.23444
3689.49860	0.23806
3687.56995	0.23621
3685.64131	0.23330
3683.71266	0.23479
3681.78402	0.24431
3679.85537	0.26156
3677.92673	0.28222
3675.99808	0.29983
3674.06943	0.30886
3672.14079	0.30701
3670.21214	0.29566
3668.28350	0.27899
3666.35485	0.26247
3664.42621	0.25106
3662.49756	0.24797
3660.56892	0.25441
3658.64027	0.26986
3656.71163	0.29202
3654.78298	0.31703
3652.85434	0.34047
3650.92569	0.35853
3648.99704	0.36906
3647.06840	0.37211
3645.13975	0.37006
3643.21111	0.36687
3641.28246	0.36673
3639.35382	0.37286
3637.42517	0.38662
3635.49653	0.40702
3633.56788	0.43085
3631.63924	0.45365
3629.71059	0.47131
3627.78195	0.48173
3625.85330	0.48589
3623.92465	0.48728
3621.99601	0.49005
3620.06736	0.49732
3618.13872	0.51027
3616.21007	0.52832
3614.28143	0.54966
3612.35278	0.57215
3610.42414	0.59390
3608.49549	0.61341
3606.56685	0.62961
3604.63820	0.64207
3602.70956	0.65130
3600.78091	0.65860
3598.85226	0.66535
3596.92362	0.67251
3594.99497	0.68038
3593.06633	0.68897
3591.13768	0.69840
3589.20904	0.70903
3587.28039	0.72141
3585.35175	0.73615
3583.42310	0.75367
3581.49446	0.77406
3579.56581	0.79703
3577.63717	0.82186
3575.70852	0.84715
3573.77988	0.87094
3571.85123	0.89123
3569.92258	0.90676
3567.99394	0.91757
3566.06529	0.92520
3564.13665	0.93215
3562.20800	0.94099
3560.27936	0.95329
3558.35071	0.96944
3556.42207	0.98887
3554.49342	1.01051
3552.56478	1.03318
3550.63613	1.05588
3548.70749	1.07775
3546.77884	1.09798
3544.85019	1.11586
3542.92155	1.13123
3540.99290	1.14462
3539.06426	1.15699
3537.13561	1.16935
3535.20697	1.18236
3533.27832	1.19636
3531.34968	1.21129
3529.42103	1.22689
3527.49239	1.24285
3525.56374	1.25896
3523.63510	1.27491
3521.70645	1.29027
3519.77780	1.30475
3517.84916	1.31847
3515.92051	1.33187
3513.99187	1.34549
3512.06322	1.35970
3510.13458	1.37467
3508.20593	1.39021
3506.27729	1.40583
3504.34864	1.42094
3502.42000	1.43501
3500.49135	1.44763
3498.56271	1.45865
3496.63406	1.46852
3494.70541	1.47845
3492.77677	1.48987
3490.84812	1.50363
3488.91948	1.51946
3486.99083	1.53628
3485.06219	1.55285
3483.13354	1.56841
3481.20490	1.58302
3479.27625	1.59713
3477.34761	1.61078
3475.41896	1.62294
3473.49032	1.63194
3471.56167	1.63664
3469.63302	1.63755
3467.70438	1.63708
3465.77573	1.63882
3463.84709	1.64620
3461.91844	1.66105
3459.98980	1.68300
3458.06115	1.70966
3456.13251	1.73757
3454.20386	1.76321
3452.27522	1.78396
3450.34657	1.79861
3448.41793	1.80734
3446.48928	1.81131
3444.56064	1.81220
3442.63199	1.81177
3440.70334	1.81161
3438.77470	1.81289
3436.84605	1.81633
3434.91741	1.82228
3432.98876	1.83085
3431.06012	1.84191
3429.13147	1.85486
3427.20283	1.86860
3425.27418	1.88172
3423.34554	1.89278
3421.41689	1.90072
3419.48825	1.90537
3417.55960	1.90767
3415.63095	1.90934
3413.70231	1.91220
3411.77366	1.91755
3409.84502	1.92593
3407.91637	1.93706
3405.98773	1.94991
3404.05908	1.96301
3402.13044	1.97470
3400.20179	1.98353
3398.27315	1.98846
3396.34450	1.98913
3394.41586	1.98579
3392.48721	1.97941
3390.55856	1.97152
3388.62992	1.96398
3386.70127	1.95865
3384.77263	1.95697
3382.84398	1.95941
3380.91534	1.96502
3378.98669	1.97179
3377.05805	1.97757
3375.12940	1.98115
3373.20076	1.98277
3371.27211	1.98375
3369.34347	1.98564
3367.41482	1.98907
3365.48617	1.99326
3363.55753	1.99654
3361.62888	1.99740
3359.70024	1.99553
3357.77159	1.99195
3355.84295	1.98854
3353.91430	1.98716
3351.98566	1.98874
3350.05701	1.99268
3348.12837	1.99714
3346.19972	2.00000
3344.27108	1.99990
3342.34243	1.99662
3340.41378	1.99104
3338.48514	1.98475
3336.55649	1.97927
3334.62785	1.97543
3332.69920	1.97319
3330.77056	1.97207
3328.84191	1.97146
3326.91327	1.97070
3324.98462	1.96917
3323.05598	1.96646
3321.12733	1.96231
3319.19869	1.95655
3317.27004	1.94921
3315.34140	1.94070
3313.41275	1.93187
3311.48410	1.92391
3309.55546	1.91819
3307.62681	1.91580
3305.69817	1.91699
3303.76952	1.92087
3301.84088	1.92580
3299.91223	1.93011
3297.98359	1.93280
3296.05494	1.93373
3294.12630	1.93344
3292.19765	1.93251
3290.26901	1.93120
3288.34036	1.92933
3286.41171	1.92672
3284.48307	1.92356
3282.55442	1.92043
3280.62578	1.91791
3278.69713	1.91610
3276.76849	1.91440
3274.83984	1.91178
3272.91120	1.90730
3270.98255	1.90064
3269.05391	1.89236
3267.12526	1.88346
3265.19662	1.87490
3263.26797	1.86709
3261.33932	1.85986
3259.41068	1.85271
3257.48203	1.84523
3255.55339	1.83745
3253.62474	1.82964
3251.69610	1.82220
3249.76745	1.81558
3247.83881	1.81040
3245.91016	1.80724
3243.98152	1.80645
3242.05287	1.80775
3240.12423	1.80996
3238.19558	1.81105
3236.26693	1.80885
3234.33829	1.80219
3232.40964	1.79140
3230.48100	1.77804
3228.55235	1.76413
3226.62371	1.75122
3224.69506	1.73990
3222.76642	1.72991
3220.83777	1.72084
3218.90913	1.71283
3216.98048	1.70659
3215.05184	1.70293
3213.12319	1.70212
3211.19455	1.70352
3209.26590	1.70561
3207.33725	1.70638
3205.40861	1.70396
3203.47996	1.69741
3201.55132	1.68698
3199.62267	1.67393
3197.69403	1.66001
3195.76538	1.64691
3193.83674	1.63567
3191.90809	1.62627
3189.97945	1.61776
3188.05080	1.60887
3186.12216	1.59876
3184.19351	1.58753
3182.26486	1.57608
3180.33622	1.56574
3178.40757	1.55761
3176.47893	1.55196
3174.55028	1.54797
3172.62164	1.54412
3170.69299	1.53907
3168.76435	1.53230
3166.83570	1.52420
3164.90706	1.51578
3162.97841	1.50818
3161.04977	1.50209
3159.12112	1.49722
3157.19247	1.49228
3155.26383	1.48553
3153.33518	1.47561
3151.40654	1.46207
3149.47789	1.44589
3147.54925	1.42932
3145.62060	1.41510
3143.69196	1.40513
3141.76331	1.39958
3139.83467	1.39683
3137.90602	1.39438
3135.97738	1.39010
3134.04873	1.38336
3132.12008	1.37520
3130.19144	1.36747
3128.26279	1.36157
3126.33415	1.35771
3124.40550	1.35493
3122.47686	1.35173
3120.54821	1.34685
3118.61957	1.33983
3116.69092	1.33093
3114.76228	1.32058
3112.83363	1.30909
3110.90499	1.29675
3108.97634	1.28413
3107.04769	1.27207
3105.11905	1.26154
3103.19040	1.25325
3101.26176	1.24722
3099.33311	1.24273
3097.40447	1.23861
3095.47582	1.23383
3093.54718	1.22791
3091.61853	1.22107
3089.68989	1.21402
3087.76124	1.20748
3085.83260	1.20170
3083.90395	1.19633
3081.97531	1.19057
3080.04666	1.18360
3078.11801	1.17495
3076.18937	1.16490
3074.26072	1.15450
3072.33208	1.14519
3070.40343	1.13824
3068.47479	1.13426
3066.54614	1.13282
3064.61750	1.13261
3062.68885	1.13176
3060.76021	1.12842
3058.83156	1.12142
3056.90292	1.11089
3054.97427	1.09826
3053.04562	1.08569
3051.11698	1.07519
3049.18833	1.06783
3047.25969	1.06343
3045.33104	1.06067
3043.40240	1.05775
3041.47375	1.05333
3039.54511	1.04695
3037.61646	1.03900
3035.68782	1.03021
3033.75917	1.02138
3031.83053	1.01309
3029.90188	1.00547
3027.97323	0.99832
3026.04459	0.99151
3024.11594	0.98515
3022.18730	0.97959
3020.25865	0.97521
3018.33001	0.97233
3016.40136	0.97089
3014.47272	0.97032
3012.54407	0.96958
3010.61543	0.96766
3008.68678	0.96391
3006.75814	0.95846
3004.82949	0.95223
3002.90084	0.94646
3000.97220	0.94193
2999.04355	0.93871
2997.11491	0.93612
2995.18626	0.93296
2993.25762	0.92816
2991.32897	0.92183
2989.40033	0.91549
2987.47168	0.91116
2985.54304	0.91048
2983.61439	0.91408
2981.68575	0.92126
2979.75710	0.93001
2977.82845	0.93798
2975.89981	0.94346
2973.97116	0.94576
2972.04252	0.94528
2970.11387	0.94345
2968.18523	0.94197
2966.25658	0.94176
2964.32794	0.94277
2962.39929	0.94428
2960.47065	0.94511
2958.54200	0.94423
2956.61336	0.94177
2954.68471	0.93915
2952.75607	0.93785
2950.82742	0.93848
2948.89877	0.94080
2946.97013	0.94396
2945.04148	0.94683
2943.11284	0.94874
2941.18419	0.95006
2939.25555	0.95155
2937.32690	0.95320
2935.39826	0.95396
2933.46961	0.95265
2931.54097	0.94881
2929.61232	0.94283
2927.68368	0.93572
2925.75503	0.92877
2923.82638	0.92291
2921.89774	0.91814
2919.96909	0.91370
2918.04045	0.90905
2916.11180	0.90423
2914.18316	0.89930
2912.25451	0.89386
2910.32587	0.88731
2908.39722	0.87955
2906.46858	0.87118
2904.53993	0.86322
2902.61129	0.85668
2900.68264	0.85213
2898.75399	0.84924
2896.82535	0.84702
2894.89670	0.84454
2892.96806	0.84153
2891.03941	0.83836
2889.11077	0.83549
2887.18212	0.83324
2885.25348	0.83174
2883.32483	0.83100
2881.39619	0.83095
2879.46754	0.83153
2877.53890	0.83239
2875.61025	0.83259
2873.68160	0.83089
2871.75296	0.82622
2869.82431	0.81828
2867.89567	0.80783
2865.96702	0.79680
2864.03838	0.78765
2862.10973	0.78228
2860.18109	0.78121
2858.25244	0.78364
2856.32380	0.78772
2854.39515	0.79125
2852.46651	0.79245
2850.53786	0.79042
2848.60922	0.78509
2846.68057	0.77702
2844.75192	0.76733
2842.82328	0.75756
2840.89463	0.74909
2838.96599	0.74248
2837.03734	0.73728
2835.10870	0.73228
2833.18005	0.72638
2831.25141	0.71926
2829.32276	0.71136
2827.39412	0.70329
2825.46547	0.69550
2823.53683	0.68830
2821.60818	0.68189
2819.67953	0.67671
2817.75089	0.67371
2815.82224	0.67390
2813.89360	0.67727
2811.96495	0.68228
2810.03631	0.68658
2808.10766	0.68838
2806.17902	0.68702
2804.25037	0.68277
2802.32173	0.67649
2800.39308	0.66938
2798.46444	0.66243
2796.53579	0.65597
2794.60714	0.64993
2792.67850	0.64450
2790.74985	0.64020
2788.82121	0.63730
2786.89256	0.63555
2784.96392	0.63450
2783.03527	0.63349
2781.10663	0.63159
2779.17798	0.62815
2777.24934	0.62349
2775.32069	0.61894
2773.39205	0.61613
2771.46340	0.61610
2769.53475	0.61868
2767.60611	0.62236
2765.67746	0.62481
2763.74882	0.62411
2761.82017	0.61980
2759.89153	0.61309
2757.96288	0.60613
2756.03424	0.60064
2754.10559	0.59710
2752.17695	0.59475
2750.24830	0.59231
2748.31966	0.58891
2746.39101	0.58461
2744.46236	0.58034
2742.53372	0.57738
2740.60507	0.57654
2738.67643	0.57765
2736.74778	0.57963
2734.81914	0.58128
2732.89049	0.58174
2730.96185	0.58054
2729.03320	0.57768
2727.10456	0.57377
2725.17591	0.56969
2723.24727	0.56584
2721.31862	0.56194
2719.38998	0.55769
2717.46133	0.55328
2715.53268	0.54922
2713.60404	0.54610
2711.67539	0.54444
2709.74675	0.54445
2707.81810	0.54559
2705.88946	0.54664
2703.96081	0.54639
2702.03217	0.54436
2700.10352	0.54081
2698.17488	0.53621
2696.24623	0.53121
2694.31759	0.52671
2692.38894	0.52348
2690.46029	0.52172
2688.53165	0.52122
2686.60300	0.52162
2684.67436	0.52249
2682.74571	0.52316
2680.81707	0.52297
2678.88842	0.52152
2676.95978	0.51842
2675.03113	0.51332
2673.10249	0.50638
2671.17384	0.49864
2669.24520	0.49159
2667.31655	0.48643
2665.38790	0.48361
2663.45926	0.48277
2661.53061	0.48277
2659.60197	0.48238
2657.67332	0.48107
2655.74468	0.47922
2653.81603	0.47773
2651.88739	0.47731
2649.95874	0.47792
2648.03010	0.47867
2646.10145	0.47833
2644.17281	0.47601
2642.24416	0.47136
2640.31551	0.46452
2638.38687	0.45633
2636.45822	0.44800
2634.52958	0.44072
2632.60093	0.43524
2630.67229	0.43190
2628.74364	0.43046
2626.81500	0.43012
2624.88635	0.42975
2622.95771	0.42843
2621.02906	0.42595
2619.10042	0.42311
2617.17177	0.42139
2615.24312	0.42207
2613.31448	0.42544
2611.38583	0.43052
2609.45719	0.43525
2607.52854	0.43715
2605.59990	0.43465
2603.67125	0.42814
2601.74261	0.42015
2599.81396	0.41413
2597.88532	0.41297
2595.95667	0.41769
2594.02803	0.42687
2592.09938	0.43709
2590.17074	0.44436
2588.24209	0.44602
2586.31344	0.44194
2584.38480	0.43410
2582.45615	0.42518
2580.52751	0.41724
2578.59886	0.41108
2576.67022	0.40633
2574.74157	0.40191
2572.81293	0.39726
2570.88428	0.39313
2568.95564	0.39084
2567.02699	0.39085
2565.09835	0.39270
2563.16970	0.39585
2561.24105	0.39982
2559.31241	0.40360
2557.38376	0.40606
2555.45512	0.40663
2553.52647	0.40475
2551.59783	0.39978
2549.66918	0.39241
2547.74054	0.38522
2545.81189	0.38084
2543.88325	0.38025
2541.95460	0.38280
2540.02596	0.38673
2538.09731	0.38999
2536.16866	0.39150
2534.24002	0.39194
2532.31137	0.39272
2530.38273	0.39459
2528.45408	0.39735
2526.52544	0.40022
2524.59679	0.40221
2522.66815	0.40301
2520.73950	0.40314
2518.81086	0.40318
2516.88221	0.40309
2514.95357	0.40274
2513.02492	0.40227
2511.09627	0.40192
2509.16763	0.40211
2507.23898	0.40381
2505.31034	0.40774
2503.38169	0.41329
2501.45305	0.41888
2499.52440	0.42285
2497.59576	0.42359
2495.66711	0.41955
2493.73847	0.41005
2491.80982	0.39599
2489.88118	0.37921
2487.95253	0.36186
2486.02389	0.34668
2484.09524	0.33699
2482.16659	0.33525
2480.23795	0.34187
2478.30930	0.35515
2476.38066	0.37188
2474.45201	0.38785
2472.52337	0.39902
2470.59472	0.40312
2468.66608	0.40020
2466.73743	0.39187
2464.80879	0.38073
2462.88014	0.37010
2460.95150	0.36337
2459.02285	0.36281
2457.09420	0.36865
2455.16556	0.37904
2453.23691	0.39057
2451.30827	0.39943
2449.37962	0.40312
2447.45098	0.40162
2445.52233	0.39724
2443.59369	0.39305
2441.66504	0.39105
2439.73640	0.39140
2437.80775	0.39280
2435.87911	0.39348
2433.95046	0.39220
2432.02181	0.38886
2430.09317	0.38437
2428.16452	0.37997
2426.23588	0.37638
2424.30723	0.37354
2422.37859	0.37095
2420.44994	0.36820
2418.52130	0.36516
2416.59265	0.36208
2414.66401	0.35971
2412.73536	0.35937
2410.80672	0.36241
2408.87807	0.36939
2406.94942	0.37947
2405.02078	0.39067
2403.09213	0.40046
2401.16349	0.40656
2399.23484	0.40786
2397.30620	0.40496
2395.37755	0.39959
2393.44891	0.39358
2391.52026	0.38824
2389.59162	0.38450
2387.66297	0.38322
2385.73433	0.38537
2383.80568	0.39160
2381.87703	0.40142
2379.94839	0.41270
2378.01974	0.42181
2376.09110	0.42470
2374.16245	0.41819
2372.23381	0.40149
2370.30516	0.37726
2368.37652	0.35122
2366.44787	0.33052
2364.51923	0.32159
2362.59058	0.32790
2360.66194	0.34815
2358.73329	0.37612
2356.80465	0.40307
2354.87600	0.42167
2352.94735	0.42906
2351.01871	0.42745
2349.09006	0.42189
2347.16142	0.41671
2345.23277	0.41292
2343.30413	0.40834
2341.37548	0.39972
2339.44684	0.38564
2337.51819	0.36828
2335.58955	0.35264
2333.66090	0.34354
2331.73226	0.34300
2329.80361	0.34959
2327.87496	0.35960
2325.94632	0.36852
2324.01767	0.37262
2322.08903	0.37033
2320.16038	0.36267
2318.23174	0.35255
2316.30309	0.34349
2314.37445	0.33839
2312.44580	0.33840
2310.51716	0.34254
2308.58851	0.34841
2306.65987	0.35366
2304.73122	0.35708
2302.80257	0.35885
2300.87393	0.35998
2298.94528	0.36116
2297.01664	0.36217
2295.08799	0.36220
2293.15935	0.36095
2291.23070	0.35922
2289.30206	0.35843
2287.37341	0.35969
2285.44477	0.36304
2283.51612	0.36727
2281.58748	0.37053
2279.65883	0.37135
2277.73018	0.36945
2275.80154	0.36562
2273.87289	0.36084
2271.94425	0.35527
2270.01560	0.34812
2268.08696	0.33845
2266.15831	0.32635
2264.22967	0.31352
2262.30102	0.30280
2260.37238	0.29682
2258.44373	0.29618
2256.51509	0.29901
2254.58644	0.30269
2252.65779	0.30585
2250.72915	0.30943
2248.80050	0.31633
2246.87186	0.32878
2244.94321	0.34504
2243.01457	0.35857
2241.08592	0.36226
2239.15728	0.35338
2237.22863	0.33478
2235.29999	0.31383
2233.37134	0.30074
2231.44270	0.30269
2229.51405	0.31763
2227.58541	0.33633
2225.65676	0.34978
2223.72811	0.35284
2221.79947	0.34428
2219.87082	0.32765
2217.94218	0.31090
2216.01353	0.29992
2214.08489	0.29367
2212.15624	0.28765
2210.22760	0.27885
2208.29895	0.26828
2206.37031	0.26271
2204.44166	0.27223
2202.51302	0.30302
2200.58437	0.35081
2198.65572	0.40076
2196.72708	0.43269
2194.79843	0.42972
2192.86979	0.38896
2190.94114	0.32631
2189.01250	0.26817
2187.08385	0.23689
2185.15521	0.23953
2183.22656	0.26457
2181.29792	0.28961
2179.36927	0.29669
2177.44063	0.28460
2175.51198	0.26926
2173.58333	0.27249
2171.65469	0.30664
2169.72604	0.36470
2167.79740	0.42469
2165.86875	0.46476
2163.94011	0.47498
2162.01146	0.45921
2160.08282	0.42887
2158.15417	0.39324
2156.22553	0.35398
2154.29688	0.30975
2152.36824	0.26410
2150.43959	0.22473
2148.51094	0.19792
2146.58230	0.18671
2144.65365	0.18954
2142.72501	0.19840
2140.79636	0.20434
2138.86772	0.20626
2136.93907	0.20909
2135.01043	0.21495
2133.08178	0.22202
2131.15314	0.22941
2129.22449	0.23774
2127.29585	0.24703
2125.36720	0.25815
2123.43856	0.27364
2121.50991	0.29392
2119.58126	0.31557
2117.65262	0.33432
2115.72397	0.34695
2113.79533	0.35071
2111.86668	0.34339
2109.93804	0.32474
2108.00939	0.29736
2106.08075	0.26620
2104.15210	0.23717
2102.22346	0.21561
2100.29481	0.20481
2098.36617	0.20526
2096.43752	0.21510
2094.50887	0.23081
2092.58023	0.24816
2090.65158	0.26305
2088.72294	0.27231
2086.79429	0.27466
2084.86565	0.27137
2082.93700	0.26594
2081.00836	0.26259
2079.07971	0.26382
2077.15107	0.26837
2075.22242	0.27163
2073.29378	0.26835
2071.36513	0.25608
2069.43648	0.23759
2067.50784	0.22035
2065.57919	0.21267
2063.65055	0.21838
2061.72190	0.23369
2059.79326	0.24847
2057.86461	0.25076
2055.93597	0.23236
2054.00732	0.19324
2052.07868	0.14223
2050.15003	0.09340
2048.22139	0.06055
2046.29274	0.05284
2044.36409	0.07188
2042.43545	0.11080
2040.50680	0.15667
2038.57816	0.19585
2036.64951	0.21948
2034.72087	0.22635
2032.79222	0.22309
2030.86358	0.22126
2028.93493	0.23176
2027.00629	0.25946
2025.07764	0.30184
2023.14900	0.35093
2021.22035	0.39618
2019.29170	0.42744
2017.36306	0.43836
2015.43441	0.42844
2013.50577	0.40215
2011.57712	0.36624
2009.64848	0.32758
2007.71983	0.29159
2005.79119	0.26096
2003.86254	0.23633
2001.93390	0.21925
2000.00525	0.21339
1998.07661	0.22199
1996.14796	0.24390
1994.21932	0.27251
1992.29067	0.29815
1990.36202	0.31224
1988.43338	0.31123
1986.50473	0.29830
1984.57609	0.28099
1982.64744	0.26563
1980.71880	0.25315
1978.79015	0.23992
1976.86151	0.22192
1974.93286	0.19834
1973.00422	0.17195
1971.07557	0.14846
1969.14693	0.13205
1967.21828	0.12325
1965.28963	0.11929
1963.36099	0.11715
1961.43234	0.11688
1959.50370	0.12219
1957.57505	0.13803
1955.64641	0.16680
1953.71776	0.20596
1951.78912	0.24842
1949.86047	0.28523
1947.93183	0.30883
1946.00318	0.31582
1944.07454	0.30774
1942.14589	0.28938
1940.21724	0.26614
1938.28860	0.24257
1936.35995	0.22216
1934.43131	0.20741
1932.50266	0.19980
1930.57402	0.19971
1928.64537	0.20636
1926.71673	0.21770
1924.78808	0.23103
1922.85944	0.24404
1920.93079	0.25523
1919.00215	0.26385
1917.07350	0.27002
1915.14485	0.27459
1913.21621	0.27870
1911.28756	0.28320
1909.35892	0.28853
1907.43027	0.29434
1905.50163	0.29904
1903.57298	0.30019
1901.64434	0.29583
1899.71569	0.28571
1897.78705	0.27176
1895.85840	0.25746
1893.92976	0.24659
1892.00111	0.24171
1890.07246	0.24330
1888.14382	0.24975
1886.21517	0.25824
1884.28653	0.26579
1882.35788	0.27031
1880.42924	0.27118
1878.50059	0.26908
1876.57195	0.26544
1874.64330	0.26184
1872.71466	0.25970
1870.78601	0.25980
1868.85737	0.26194
1866.92872	0.26500
1865.00008	0.26772
1863.07143	0.26911
1861.14278	0.26864
1859.21414	0.26632
1857.28549	0.26302
1855.35685	0.26009
1853.42820	0.25871
1851.49956	0.25949
1849.57091	0.26261
1847.64227	0.26787
1845.71362	0.27446
1843.78498	0.28111
1841.85633	0.28659
1839.92769	0.29012
1837.99904	0.29134
1836.07039	0.29029
1834.14175	0.28764
1832.21310	0.28465
1830.28446	0.28260
1828.35581	0.28218
1826.42717	0.28334
1824.49852	0.28541
1822.56988	0.28735
1820.64123	0.28813
1818.71259	0.28719
1816.78394	0.28475
1814.85530	0.28165
1812.92665	0.27901
1810.99800	0.27796
1809.06936	0.27933
1807.14071	0.28341
1805.21207	0.28977
1803.28342	0.29732
1801.35478	0.30455
1799.42613	0.31014
1797.49749	0.31348
1795.56884	0.31483
1793.64020	0.31493
1791.71155	0.31459
1789.78291	0.31449
1787.85426	0.31506
1785.92561	0.31675
1783.99697	0.32026
1782.06832	0.32645
1780.13968	0.33571
1778.21103	0.34748
1776.28239	0.36005
1774.35374	0.37108
1772.42510	0.37848
1770.49645	0.38133
1768.56781	0.38017
1766.63916	0.37658
1764.71052	0.37252
1762.78187	0.36980
1760.85322	0.36971
1758.92458	0.37285
1756.99593	0.37914
1755.06729	0.38780
1753.13864	0.39750
1751.21000	0.40662
1749.28135	0.41412
1747.35271	0.42050
1745.42406	0.42792
1743.49542	0.43900
1741.56677	0.45505
1739.63813	0.47482
1737.70948	0.49443
1735.78084	0.50866
1733.85219	0.51339
1731.92354	0.50817
1729.99490	0.49724
1728.06625	0.48784
1726.13761	0.48671
1724.20896	0.49703
1722.28032	0.51699
1720.35167	0.54055
1718.42303	0.56024
1716.49438	0.57076
1714.56574	0.57183
1712.63709	0.56831
1710.70845	0.56778
1708.77980	0.57703
1706.85115	0.59906
1704.92251	0.63171
1702.99386	0.66832
1701.06522	0.70048
1699.13657	0.72177
1697.20793	0.73088
1695.27928	0.73214
1693.35064	0.73311
1691.42199	0.74073
1689.49335	0.75796
1687.56470	0.78281
1685.63606	0.80980
1683.70741	0.83337
1681.77876	0.85120
1679.85012	0.86522
1677.92147	0.87961
1675.99283	0.89787
1674.06418	0.92090
1672.13554	0.94687
1670.20689	0.97253
1668.27825	0.99545
1666.34960	1.01629
1664.42096	1.03892
1662.49231	1.06819
1660.56367	1.10702
1658.63502	1.15463
1656.70637	1.20595
1654.77773	1.25255
1652.84908	1.28558
1650.92044	1.29981
1648.99179	1.29595
1647.06315	1.27983
1645.13450	1.25971
1643.20586	1.24329
1641.27721	1.23518
1639.34857	1.23550
1637.41992	1.24075
1635.49128	1.24632
1633.56263	1.24908
1631.63399	1.24852
1629.70534	1.24656
1627.77669	1.24635
1625.84805	1.25060
1623.91940	1.25996
1621.99076	1.27254
1620.06211	1.28464
1618.13347	1.29233
1616.20482	1.29310
1614.27618	1.28686
1612.34753	1.27578
1610.41889	1.26294
1608.49024	1.25084
1606.56160	1.24057
1604.63295	1.23179
1602.70430	1.22325
1600.77566	1.21357
1598.84701	1.20196
1596.91837	1.18827
1594.98972	1.17256
1593.06108	1.15494
1591.13243	1.13581
1589.20379	1.11635
1587.27514	1.09846
1585.34650	1.08404
1583.41785	1.07396
1581.48921	1.06739
1579.56056	1.06171
1577.63191	1.05313
1575.70327	1.03824
1573.77462	1.01619
1571.84598	0.99003
1569.91733	0.96585
1567.98869	0.95010
1566.06004	0.94646
1564.13140	0.95352
1562.20275	0.96437
1560.27411	0.96887
1558.34546	0.95831
1556.41682	0.92992
1554.48817	0.88854
1552.55952	0.84450
1550.63088	0.80913
1548.70223	0.78987
1546.77359	0.78727
1544.84494	0.79499
1542.91630	0.80280
1540.98765	0.80108
1539.05901	0.78490
1537.13036	0.75577
1535.20172	0.72062
1533.27307	0.68869
1531.34443	0.66811
1529.41578	0.66314
1527.48713	0.67279
1525.55849	0.69130
1523.62984	0.71057
1521.70120	0.72342
1519.77255	0.72643
1517.84391	0.72075
1515.91526	0.71075
1513.98662	0.70105
1512.05797	0.69395
1510.12933	0.68842
1508.20068	0.68112
1506.27204	0.66881
1504.34339	0.65092
1502.41475	0.63019
1500.48610	0.61087
1498.55745	0.59597
1496.62881	0.58584
1494.70016	0.57850
1492.77152	0.57108
1490.84287	0.56137
1488.91423	0.54915
1486.98558	0.53660
1485.05694	0.52748
1483.12829	0.52533
1481.19965	0.53204
1479.27100	0.54718
1477.34236	0.56832
1475.41371	0.59159
1473.48506	0.61302
1471.55642	0.63022
1469.62777	0.64362
1467.69913	0.65580
1465.77048	0.66952
1463.84184	0.68590
1461.91319	0.70365
1459.98455	0.71940
1458.05590	0.72877
1456.12726	0.72852
1454.19861	0.71846
1452.26997	0.70180
1450.34132	0.68350
1448.41267	0.66860
1446.48403	0.66082
1444.55538	0.66162
1442.62674	0.66999
1440.69809	0.68312
1438.76945	0.69766
1436.84080	0.71088
1434.91216	0.72142
1432.98351	0.72982
1431.05487	0.73825
1429.12622	0.74935
1427.19758	0.76481
1425.26893	0.78432
1423.34028	0.80545
1421.41164	0.82454
1419.48299	0.83820
1417.55435	0.84479
1415.62570	0.84518
1413.69706	0.84215
1411.76841	0.83915
1409.83977	0.83902
1407.91112	0.84314
1405.98248	0.85113
1404.05383	0.86101
1402.12519	0.87002
1400.19654	0.87559
1398.26789	0.87611
1396.33925	0.87127
1394.41060	0.86203
1392.48196	0.85008
1390.55331	0.83708
1388.62467	0.82409
1386.69602	0.81151
1384.76738	0.79947
1382.83873	0.78805
1380.91009	0.77747
1378.98144	0.76787
1377.05280	0.75920
1375.12415	0.75123
1373.19551	0.74373
1371.26686	0.73667
1369.33821	0.73018
1367.40957	0.72438
1365.48092	0.71923
1363.55228	0.71459
1361.62363	0.71027
1359.69499	0.70621
1357.76634	0.70250
1355.83770	0.69923
1353.90905	0.69635
1351.98041	0.69390
1350.05176	0.69210
1348.12312	0.69124
1346.19447	0.69133
1344.26582	0.69185
1342.33718	0.69171
1340.40853	0.68958
1338.47989	0.68450
1336.55124	0.67636
1334.62260	0.66597
1332.69395	0.65463
1330.76531	0.64362
1328.83666	0.63385
1326.90802	0.62576
1324.97937	0.61948
1323.05073	0.61498
1321.12208	0.61202
1319.19343	0.61016
1317.26479	0.60881
1315.33614	0.60746
1313.40750	0.60581
1311.47885	0.60393
1309.55021	0.60214
1307.62156	0.60085
1305.69292	0.60039
1303.76427	0.60088
1301.83563	0.60239
1299.90698	0.60497
1297.97834	0.60855
1296.04969	0.61294
1294.12104	0.61776
1292.19240	0.62252
1290.26375	0.62673
1288.33511	0.63012
1286.40646	0.63269
1284.47782	0.63474
1282.54917	0.63680
1280.62053	0.63943
1278.69188	0.64308
1276.76324	0.64790
1274.83459	0.65360
1272.90595	0.65949
1270.97730	0.66473
1269.04866	0.66872
1267.12001	0.67141
1265.19136	0.67324
1263.26272	0.67479
1261.33407	0.67627
1259.40543	0.67724
1257.47678	0.67681
1255.54814	0.67409
1253.61949	0.66874
1251.69085	0.66134
1249.76220	0.65319
1247.83356	0.64580
1245.90491	0.64033
1243.97627	0.63725
1242.04762	0.63636
1240.11897	0.63699
1238.19033	0.63826
1236.26168	0.63936
1234.33304	0.63985
1232.40439	0.63966
1230.47575	0.63897
1228.54710	0.63811
1226.61846	0.63734
1224.68981	0.63658
1222.76117	0.63532
1220.83252	0.63292
1218.90388	0.62904
1216.97523	0.62386
1215.04658	0.61818
1213.11794	0.61320
1211.18929	0.61012
1209.26065	0.60950
1207.33200	0.61107
1205.40336	0.61369
1203.47471	0.61592
1201.54607	0.61671
1199.61742	0.61616
1197.68878	0.61568
1195.76013	0.61734
1193.83149	0.62282
1191.90284	0.63287
1189.97419	0.64705
1188.04555	0.66386
1186.11690	0.68162
1184.18826	0.69944
1182.25961	0.71751
1180.33097	0.73630
1178.40232	0.75589
1176.47368	0.77609
1174.54503	0.79664
1172.61639	0.81706
1170.68774	0.83696
1168.75910	0.85666
1166.83045	0.87716
1164.90180	0.89934
1162.97316	0.92341
1161.04451	0.94894
1159.11587	0.97497
1157.18722	1.00008
1155.25858	1.02286
1153.32993	1.04273
1151.40129	1.06030
1149.47264	1.07703
1147.54400	1.09459
1145.61535	1.11430
1143.68671	1.13680
1141.75806	1.16205
1139.82942	1.18943
1137.90077	1.21785
1135.97212	1.24620
1134.04348	1.27403
1132.11483	1.30128
1130.18619	1.32790
1128.25754	1.35381
1126.32890	1.37910
1124.40025	1.40350
1122.47161	1.42618
1120.54296	1.44658
1118.61432	1.46527
1116.68567	1.48337
1114.75703	1.50173
1112.82838	1.52069
1110.89973	1.53985
1108.97109	1.55778
1107.04244	1.57269
1105.11380	1.58360
1103.18515	1.59109
1101.25651	1.59703
1099.32786	1.60366
1097.39922	1.61290
1095.47057	1.62619
1093.54193	1.64441
1091.61328	1.66763
1089.68464	1.69466
1087.75599	1.72310
1085.82734	1.74994
1083.89870	1.77202
1081.97005	1.78687
1080.04141	1.79392
1078.11276	1.79465
1076.18412	1.79135
1074.25547	1.78559
1072.32683	1.77787
1070.39818	1.76802
1068.46954	1.75558
1066.54089	1.74036
1064.61225	1.72290
1062.68360	1.70423
1060.75495	1.68512
1058.82631	1.66572
1056.89766	1.64584
1054.96902	1.62521
1053.04037	1.60365
1051.11173	1.58109
1049.18308	1.55749
1047.25444	1.53260
1045.32579	1.50590
1043.39715	1.47695
1041.46850	1.44623
1039.53986	1.41556
1037.61121	1.38717
1035.68256	1.36237
1033.75392	1.34067
1031.82527	1.31988
1029.89663	1.29706
1027.96798	1.26993
1026.03934	1.23842
1024.11069	1.20501
1022.18205	1.17309
1020.25340	1.14502
1018.32476	1.12117
1016.39611	1.10031
1014.46747	1.08074
1012.53882	1.06127
1010.61018	1.04184
1008.68153	1.02365
1006.75288	1.00863
1004.82424	0.99830
1002.89559	0.99306
1000.96695	0.99210
999.03830	0.99383
997.10966	0.99628
995.18101	0.99763
993.25237	0.99653
991.32372	0.99207
989.39508	0.98349
987.46643	0.96989
985.53779	0.95002
983.60914	0.92294
981.68049	0.88926
979.75185	0.85154
977.82320	0.81308
975.89456	0.77659
973.96591	0.74376
972.03727	0.71521
970.10862	0.69048
968.17998	0.66901
966.25133	0.65105
964.32269	0.63728
962.39404	0.62758
960.46540	0.62045
958.53675	0.61397
956.60810	0.60725
954.67946	0.60097
952.75081	0.59664
950.82217	0.59552
948.89352	0.59818
946.96488	0.60435
945.03623	0.61271
943.10759	0.62131
941.17894	0.62832
939.25030	0.63191
937.32165	0.63013
935.39301	0.62185
933.46436	0.60838
931.53571	0.59347
929.60707	0.58135
927.67842	0.57465
925.74978	0.57325
923.82113	0.57454
921.89249	0.57510
919.96384	0.57276
918.03520	0.56711
916.10655	0.55867
914.17791	0.54817
912.24926	0.53634
910.32062	0.52384
908.39197	0.51176
906.46333	0.50209
904.53468	0.49700
902.60603	0.49716
900.67739	0.50119
898.74874	0.50669
896.82010	0.51147
894.89145	0.51393
892.96281	0.51359
891.03416	0.51160
889.10552	0.51018
887.17687	0.51157
885.24823	0.51723
883.31958	0.52729
881.39094	0.54030
879.46229	0.55326
877.53364	0.56267
875.60500	0.56662
873.67635	0.56586
871.74771	0.56314
869.81906	0.56166
867.89042	0.56308
865.96177	0.56674
864.03313	0.57028
862.10448	0.57129
860.17584	0.56892
858.24719	0.56405
856.31855	0.55838
854.38990	0.55301
852.46125	0.54746
850.53261	0.54016
848.60396	0.53039
846.67532	0.51900
844.74667	0.50757
842.81803	0.49756
840.88938	0.49025
838.96074	0.48669
837.03209	0.48717
835.10345	0.49067
833.17480	0.49514
831.24616	0.49820
829.31751	0.49781
827.38886	0.49306
825.46022	0.48479
823.53157	0.47555
821.60293	0.46806
819.67428	0.46314
817.74564	0.45957
815.81699	0.45570
813.88835	0.45094
811.95970	0.44607
810.03106	0.44278
808.10241	0.44277
806.17377	0.44662
804.24512	0.45304
802.31647	0.45947
800.38783	0.46302
798.45918	0.46184
796.53054	0.45641
794.60189	0.44942
792.67325	0.44434
790.74460	0.44424
788.81596	0.45119
786.88731	0.46567
784.95867	0.48542
783.03002	0.50572
781.10138	0.52138
779.17273	0.52814
777.24409	0.52324
775.31544	0.50665
773.38679	0.48261
771.45815	0.45915
769.52950	0.44421
767.60086	0.44207
765.67221	0.45296
763.74357	0.47421
761.81492	0.50070
759.88628	0.52593
757.95763	0.54473
756.02899	0.55495
754.10034	0.55603
752.17170	0.54794
750.24305	0.53273
748.31440	0.51557
746.38576	0.50246
744.45711	0.49735
742.52847	0.50126
740.59982	0.51176
738.67118	0.52300
736.74253	0.52839
734.81389	0.52482
732.88524	0.51420
730.95660	0.50202
729.02795	0.49496
727.09931	0.49833
725.17066	0.51317
723.24201	0.53541
721.31337	0.55852
719.38472	0.57647
717.45608	0.58548
715.52743	0.58463
713.59879	0.57588
711.67014	0.56291
709.74150	0.54953
707.81285	0.53853
705.88421	0.53173
703.95556	0.52985
702.02692	0.53242
700.09827	0.53793
698.16962	0.54431
696.24098	0.54968
694.31233	0.55294
692.38369	0.55415
690.45504	0.55437
688.52640	0.55501
686.59775	0.55679
684.66911	0.55914
682.74046	0.56061
680.81182	0.56024
678.88317	0.55839
676.95453	0.55656
675.02588	0.55654
673.09723	0.55932
671.16859	0.56404
669.23994	0.56811
667.31130	0.56892
665.38265	0.56602
663.45401	0.56139
661.52536	0.55773
659.59672	0.55681
657.66807	0.55860
655.73943	0.56162
653.81078	0.56430
651.88214	0.56627
649.95349	0.56878
648.02485	0.57335
646.09620	0.58030
644.16755	0.58841
642.23891	0.59604
640.31026	0.60254
638.38162	0.60852
636.45297	0.61468
634.52433	0.62008
632.59568	0.62074
630.66704	0.60983
628.73839	0.58006
626.80975	0.52660
624.88110	0.44807
622.95246	0.34725
621.02381	0.23369
619.09516	0.12467
617.16652	0.04084
615.23787	0.00000
613.30923	0.01321
611.38058	0.08177
609.45194	0.19415
607.52329	0.32869
605.59465	0.46337
603.66600	0.58251
601.73736	0.67611
599.80871	0.73847
597.88007	0.76962
595.95142	0.77528
594.02277	0.76385
592.09413	0.74410
590.16548	0.72457
588.23684	0.71179
586.30819	0.70756
584.37955	0.70913
582.45090	0.71199
580.52226	0.71284
578.59361	0.71082
576.66497	0.70728
574.73632	0.70484
572.80768	0.70633
570.87903	0.71344
568.95038	0.72537
567.02174	0.73881
565.09309	0.74944
563.16445	0.75418
561.23580	0.75293
559.30716	0.74864
557.37851	0.74565
555.44987	0.74718
553.52122	0.75374
551.59258	0.76326
549.66393	0.77259
547.73529	0.77942
545.80664	0.78371
543.87800	0.78762
541.94935	0.79411
540.02070	0.80502
538.09206	0.82009
536.16341	0.83698
534.23477	0.85230
532.30612	0.86297
530.37748	0.86713
528.44883	0.86457
526.52019	0.85655
524.59154	0.84533
522.66290	0.83329
520.73425	0.82204
518.80561	0.81211
516.87696	0.80293
514.94831	0.79269
513.01967	0.77854
511.09102	0.75819
509.16238	0.73200
507.23373	0.70368
505.30509	0.67897
503.37644	0.66328
501.44780	0.65920
499.51915	0.66452
497.59051	0.67231
495.66186	0.67376
493.73322	0.66217
491.80457	0.63593
489.87592	0.59917
487.94728	0.56005
486.01863	0.52761
484.08999	0.50852
482.16134	0.50495
480.23270	0.51420
478.30405	0.53012
476.37541	0.54573
474.44676	0.55564
472.51812	0.55713
470.58947	0.55021
468.66083	0.53729
466.73218	0.52218
464.80353	0.50858
462.87489	0.49862
460.94624	0.49246
459.01760	0.48840
457.08895	0.48347
455.16031	0.47474
453.23166	0.46111
451.30302	0.44414
449.37437	0.42729
447.44573	0.41430
445.51708	0.40766
443.58844	0.40765
441.65979	0.41230
439.73114	0.41841
437.80250	0.42318
435.87385	0.42534
433.94521	0.42541
432.01656	0.42515
430.08792	0.42654
428.15927	0.43054
426.23063	0.43619
424.30198	0.44056
422.37334	0.43972
420.44469	0.43011
418.51605	0.41015
416.58740	0.38142
414.65876	0.34869
412.73011	0.31879
410.80146	0.29859
408.87282	0.29287
406.94417	0.30251
405.01553	0.32405
403.08688	0.35078
401.15824	0.37478
399.22959	0.38913
397.30095	0.38982
395.37230	0.37659
393.44366	0.35224
391.51501	0.32115
389.58637	0.28842
387.65772	0.25946
385.72907	0.23935
383.80043	0.23198
381.87178	0.23907
379.94314	0.25874
378.01449	0.28444
376.08585	0.30600
374.15720	0.31325
372.22856	0.30026
370.29991	0.26798
368.37127	0.22469
366.44262	0.18347
364.51398	0.15759
362.58533	0.15538
360.65668	0.17736
358.72804	0.21631
356.79939	0.25971
354.87075	0.29379
352.94210	0.30805
351.01346	0.29858
349.08481	0.26886
347.15617	0.22790
345.22752	0.18662
343.29888	0.15455
341.37023	0.13722
339.44159	0.13556
337.51294	0.14727
335.58429	0.16804
333.65565	0.19270
331.72700	0.21565
329.79836	0.23127
327.86971	0.23548
325.94107	0.22756
324.01242	0.21083
322.08378	0.19114
320.15513	0.17402
318.22649	0.16211
316.29784	0.15457
314.36920	0.14907
312.44055	0.14459
310.51190	0.14329
308.58326	0.14964
306.65461	0.16671
304.72597	0.19230
302.79732	0.21832
300.86868	0.23467
298.94003	0.23434
297.01139	0.21639
295.08274	0.18628
293.15410	0.15435
291.22545	0.13234
289.29681	0.12915
287.36816	0.14788
285.43952	0.18496
283.51087	0.23049
281.58222	0.27021
279.65358	0.29057
277.72493	0.28515
275.79629	0.25778
273.86764	0.22031
271.93900	0.18657
270.01035	0.16609
268.08171	0.16060
266.15306	0.16526
264.22442	0.17369
262.29577	0.18292
260.36713	0.19540
258.43848	0.21712
256.50983	0.25335
254.58119	0.30438
252.65254	0.36422
250.72390	0.42262
248.79525	0.46817
246.86661	0.49113
244.93796	0.48603
243.00932	0.45356
241.08067	0.40117
239.15203	0.34290
237.22338	0.29764
235.29474	0.28478
233.36609	0.31692
231.43744	0.39289
229.50880	0.49496
227.58015	0.59291
225.65151	0.65433
223.72286	0.65735
221.79422	0.59956
219.86557	0.49944
217.93693	0.39035
216.00828	0.30943
214.07964	0.28525
212.15099	0.32736
210.22235	0.42213
208.29370	0.53743
206.36505	0.63466
204.43641	0.68350
202.50776	0.67392
200.57912	0.62033
198.65047	0.55390
196.72183	0.50572
194.79318	0.49133
192.86454	0.50590
190.93589	0.53081
189.00725	0.54625
187.07860	0.54384
185.14996	0.53275
183.22131	0.53404
181.29267	0.56616
179.36402	0.63248
177.43537	0.71898
175.50673	0.80108
173.57808	0.85398
171.64944	0.86232
169.72079	0.82659
167.79215	0.76350
165.86350	0.70052
163.93486	0.66806
162.00621	0.70471
160.07757	0.78934
158.14892	0.89583
156.22028	0.99671
154.29163	0.99671
152.36298	0.99671
150.43434	0.99671
148.50569	0.99671
