4497.60101	0.04387
4495.67236	0.04387
4493.74372	0.04387
4491.81507	0.04387
4489.88643	0.04387
4487.95778	0.04403
4486.02914	0.04438
4484.10049	0.04488
4482.17185	0.04540
4480.24320	0.04581
4478.31455	0.04607
4476.38591	0.04632
4474.45726	0.04678
4472.52862	0.04761
4470.59997	0.04883
4468.67133	0.05019
4466.74268	0.05131
4464.81404	0.05195
4462.88539	0.05202
4460.95675	0.05155
4459.02810	0.05063
4457.09946	0.04944
4455.17081	0.04822
4453.24216	0.04713
4451.31352	0.04638
4449.38487	0.04623
4447.45623	0.04684
4445.52758	0.04809
4443.59894	0.04962
4441.67029	0.05106
4439.74165	0.05216
4437.81300	0.05292
4435.88436	0.05345
4433.95571	0.05397
4432.02707	0.05461
4430.09842	0.05532
4428.16978	0.05578
4426.24113	0.05557
4424.31248	0.05457
4422.38384	0.05304
4420.45519	0.05152
4418.52655	0.05062
4416.59790	0.05088
4414.66926	0.05236
4412.74061	0.05442
4410.81197	0.05605
4408.88332	0.05649
4406.95468	0.05559
4405.02603	0.05380
4403.09739	0.05184
4401.16874	0.05044
4399.24009	0.04999
4397.31145	0.05033
4395.38280	0.05100
4393.45416	0.05162
4391.52551	0.05210
4389.59687	0.05249
4387.66822	0.05276
4385.73958	0.05285
4383.81093	0.05272
4381.88229	0.05240
4379.95364	0.05184
4378.02500	0.05105
4376.09635	0.05015
4374.16770	0.04927
4372.23906	0.04845
4370.31041	0.04775
4368.38177	0.04743
4366.45312	0.04778
4364.52448	0.04872
4362.59583	0.04987
4360.66719	0.05083
4358.73854	0.05135
4356.80990	0.05136
4354.88125	0.05101
4352.95261	0.05069
4351.02396	0.05071
4349.09531	0.05106
4347.16667	0.05146
4345.23802	0.05163
4343.30938	0.05140
4341.38073	0.05076
4339.45209	0.04979
4337.52344	0.04874
4335.59480	0.04789
4333.66615	0.04745
4331.73751	0.04755
4329.80886	0.04818
4327.88022	0.04911
4325.95157	0.04998
4324.02292	0.05053
4322.09428	0.05073
4320.16563	0.05058
4318.23699	0.05018
4316.30834	0.04963
4314.37970	0.04899
4312.45105	0.04827
4310.52241	0.04754
4308.59376	0.04715
4306.66512	0.04739
4304.73647	0.04830
4302.80783	0.04959
4300.87918	0.05083
4298.95054	0.05153
4297.02189	0.05134
4295.09324	0.05037
4293.16460	0.04905
4291.23595	0.04787
4289.30731	0.04712
4287.37866	0.04690
4285.45002	0.04722
4283.52137	0.04802
4281.59273	0.04917
4279.66408	0.05051
4277.73544	0.05176
4275.80679	0.05251
4273.87815	0.05231
4271.94950	0.05099
4270.02085	0.04878
4268.09221	0.04628
4266.16356	0.04414
4264.23492	0.04285
4262.30627	0.04265
4260.37763	0.04347
4258.44898	0.04491
4256.52034	0.04639
4254.59169	0.04744
4252.66305	0.04785
4250.73440	0.04769
4248.80576	0.04725
4246.87711	0.04696
4244.94846	0.04716
4243.01982	0.04779
4241.09117	0.04840
4239.16253	0.04854
4237.23388	0.04804
4235.30524	0.04705
4233.37659	0.04588
4231.44795	0.04498
4229.51930	0.04457
4227.59066	0.04447
4225.66201	0.04428
4223.73337	0.04386
4221.80472	0.04339
4219.87607	0.04323
4217.94743	0.04373
4216.01878	0.04510
4214.09014	0.04720
4212.16149	0.04941
4210.23285	0.05109
4208.30420	0.05193
4206.37556	0.05196
4204.44691	0.05136
4202.51827	0.05045
4200.58962	0.04970
4198.66098	0.04941
4196.73233	0.04961
4194.80368	0.05019
4192.87504	0.05100
4190.94639	0.05176
4189.01775	0.05214
4187.08910	0.05198
4185.16046	0.05144
4183.23181	0.05084
4181.30317	0.05048
4179.37452	0.05062
4177.44588	0.05133
4175.51723	0.05241
4173.58859	0.05343
4171.65994	0.05398
4169.73130	0.05375
4167.80265	0.05263
4165.87400	0.05075
4163.94536	0.04862
4162.01671	0.04688
4160.08807	0.04599
4158.15942	0.04597
4156.23078	0.04652
4154.30213	0.04722
4152.37349	0.04769
4150.44484	0.04781
4148.51620	0.04783
4146.58755	0.04808
4144.65891	0.04872
4142.73026	0.04966
4140.80161	0.05062
4138.87297	0.05139
4136.94432	0.05186
4135.01568	0.05200
4133.08703	0.05176
4131.15839	0.05112
4129.22974	0.05028
4127.30110	0.04960
4125.37245	0.04952
4123.44381	0.05029
4121.51516	0.05180
4119.58652	0.05348
4117.65787	0.05452
4115.72922	0.05432
4113.80058	0.05288
4111.87193	0.05079
4109.94329	0.04896
4108.01464	0.04816
4106.08600	0.04866
4104.15735	0.05009
4102.22871	0.05181
4100.30006	0.05324
4098.37142	0.05398
4096.44277	0.05398
4094.51413	0.05344
4092.58548	0.05265
4090.65683	0.05176
4088.72819	0.05080
4086.79954	0.04992
4084.87090	0.04941
4082.94225	0.04952
4081.01361	0.05024
4079.08496	0.05133
4077.15632	0.05231
4075.22767	0.05270
4073.29903	0.05234
4071.37038	0.05155
4069.44174	0.05095
4067.51309	0.05103
4065.58444	0.05189
4063.65580	0.05324
4061.72715	0.05455
4059.79851	0.05537
4057.86986	0.05557
4055.94122	0.05536
4054.01257	0.05509
4052.08393	0.05501
4050.15528	0.05523
4048.22664	0.05572
4046.29799	0.05631
4044.36935	0.05684
4042.44070	0.05717
4040.51206	0.05716
4038.58341	0.05677
4036.65476	0.05607
4034.72612	0.05526
4032.79747	0.05455
4030.86883	0.05416
4028.94018	0.05415
4027.01154	0.05439
4025.08289	0.05461
4023.15425	0.05463
4021.22560	0.05450
4019.29696	0.05438
4017.36831	0.05447
4015.43967	0.05486
4013.51102	0.05542
4011.58237	0.05584
4009.65373	0.05585
4007.72508	0.05538
4005.79644	0.05460
4003.86779	0.05381
4001.93915	0.05338
4000.01050	0.05346
3998.08186	0.05398
3996.15321	0.05472
3994.22457	0.05546
3992.29592	0.05608
3990.36728	0.05651
3988.43863	0.05678
3986.50998	0.05697
3984.58134	0.05713
3982.65269	0.05726
3980.72405	0.05735
3978.79540	0.05734
3976.86676	0.05722
3974.93811	0.05700
3973.00947	0.05673
3971.08082	0.05650
3969.15218	0.05645
3967.22353	0.05670
3965.29489	0.05726
3963.36624	0.05803
3961.43759	0.05884
3959.50895	0.05948
3957.58030	0.05982
3955.65166	0.05982
3953.72301	0.05952
3951.79437	0.05906
3949.86572	0.05853
3947.93708	0.05800
3946.00843	0.05745
3944.07979	0.05690
3942.15114	0.05638
3940.22250	0.05598
3938.29385	0.05576
3936.36521	0.05579
3934.43656	0.05604
3932.50791	0.05637
3930.57927	0.05654
3928.65062	0.05642
3926.72198	0.05596
3924.79333	0.05526
3922.86469	0.05451
3920.93604	0.05392
3919.00740	0.05364
3917.07875	0.05363
3915.15011	0.05382
3913.22146	0.05412
3911.29282	0.05453
3909.36417	0.05502
3907.43552	0.05557
3905.50688	0.05611
3903.57823	0.05656
3901.64959	0.05685
3899.72094	0.05700
3897.79230	0.05706
3895.86365	0.05710
3893.93501	0.05714
3892.00636	0.05714
3890.07772	0.05699
3888.14907	0.05664
3886.22043	0.05609
3884.29178	0.05539
3882.36313	0.05464
3880.43449	0.05399
3878.50584	0.05357
3876.57720	0.05349
3874.64855	0.05373
3872.71991	0.05418
3870.79126	0.05462
3868.86262	0.05481
3866.93397	0.05470
3865.00533	0.05443
3863.07668	0.05431
3861.14804	0.05461
3859.21939	0.05542
3857.29074	0.05654
3855.36210	0.05757
3853.43345	0.05811
3851.50481	0.05802
3849.57616	0.05742
3847.64752	0.05660
3845.71887	0.05583
3843.79023	0.05522
3841.86158	0.05474
3839.93294	0.05428
3838.00429	0.05375
3836.07565	0.05326
3834.14700	0.05297
3832.21835	0.05304
3830.28971	0.05348
3828.36106	0.05420
3826.43242	0.05496
3824.50377	0.05553
3822.57513	0.05577
3820.64648	0.05570
3818.71784	0.05549
3816.78919	0.05532
3814.86055	0.05536
3812.93190	0.05564
3811.00326	0.05610
3809.07461	0.05658
3807.14597	0.05696
3805.21732	0.05718
3803.28867	0.05723
3801.36003	0.05712
3799.43138	0.05680
3797.50274	0.05619
3795.57409	0.05532
3793.64545	0.05435
3791.71680	0.05360
3789.78816	0.05340
3787.85951	0.05394
3785.93087	0.05518
3784.00222	0.05682
3782.07358	0.05847
3780.14493	0.05980
3778.21628	0.06067
3776.28764	0.06109
3774.35899	0.06111
3772.43035	0.06083
3770.50170	0.06034
3768.57306	0.05981
3766.64441	0.05942
3764.71577	0.05935
3762.78712	0.05962
3760.85848	0.06012
3758.92983	0.06057
3757.00119	0.06074
3755.07254	0.06055
3753.14389	0.06014
3751.21525	0.05977
3749.28660	0.05974
3747.35796	0.06019
3745.42931	0.06108
3743.50067	0.06216
3741.57202	0.06311
3739.64338	0.06369
3737.71473	0.06384
3735.78609	0.06369
3733.85744	0.06354
3731.92880	0.06367
3730.00015	0.06423
3728.07150	0.06521
3726.14286	0.06646
3724.21421	0.06779
3722.28557	0.06907
3720.35692	0.07024
3718.42828	0.07127
3716.49963	0.07218
3714.57099	0.07302
3712.64234	0.07391
3710.71370	0.07494
3708.78505	0.07619
3706.85641	0.07770
3704.92776	0.07939
3702.99911	0.08117
3701.07047	0.08306
3699.14182	0.08518
3697.21318	0.08769
3695.28453	0.09071
3693.35589	0.09423
3691.42724	0.09809
3689.49860	0.10210
3687.56995	0.10609
3685.64131	0.11007
3683.71266	0.11422
3681.78402	0.11872
3679.85537	0.12373
3677.92673	0.12932
3675.99808	0.13545
3674.06943	0.14211
3672.14079	0.14925
3670.21214	0.15691
3668.28350	0.16511
3666.35485	0.17391
3664.42621	0.18332
3662.49756	0.19342
3660.56892	0.20432
3658.64027	0.21611
3656.71163	0.22882
3654.78298	0.24231
3652.85434	0.25632
3650.92569	0.27048
3648.99704	0.28442
3647.06840	0.29790
3645.13975	0.31086
3643.21111	0.32343
3641.28246	0.33586
3639.35382	0.34844
3637.42517	0.36142
3635.49653	0.37496
3633.56788	0.38909
3631.63924	0.40368
3629.71059	0.41854
3627.78195	0.43349
3625.85330	0.44845
3623.92465	0.46340
3621.99601	0.47835
3620.06736	0.49330
3618.13872	0.50813
3616.21007	0.52273
3614.28143	0.53704
3612.35278	0.55114
3610.42414	0.56520
3608.49549	0.57936
3606.56685	0.59370
3604.63820	0.60818
3602.70956	0.62270
3600.78091	0.63723
3598.85226	0.65185
3596.92362	0.66675
3594.99497	0.68211
3593.06633	0.69802
3591.13768	0.71448
3589.20904	0.73137
3587.28039	0.74845
3585.35175	0.76551
3583.42310	0.78232
3581.49446	0.79867
3579.56581	0.81444
3577.63717	0.82963
3575.70852	0.84446
3573.77988	0.85927
3571.85123	0.87440
3569.92258	0.89013
3567.99394	0.90649
3566.06529	0.92337
3564.13665	0.94047
3562.20800	0.95755
3560.27936	0.97447
3558.35071	0.99123
3556.42207	1.00789
3554.49342	1.02448
3552.56478	1.04101
3550.63613	1.05744
3548.70749	1.07372
3546.77884	1.08990
3544.85019	1.10610
3542.92155	1.12247
3540.99290	1.13911
3539.06426	1.15601
3537.13561	1.17310
3535.20697	1.19026
3533.27832	1.20738
3531.34968	1.22438
3529.42103	1.24119
3527.49239	1.25778
3525.56374	1.27416
3523.63510	1.29036
3521.70645	1.30649
3519.77780	1.32265
3517.84916	1.33887
3515.92051	1.35503
3513.99187	1.37094
3512.06322	1.38644
3510.13458	1.40145
3508.20593	1.41611
3506.27729	1.43071
3504.34864	1.44554
3502.42000	1.46076
3500.49135	1.47637
3498.56271	1.49215
3496.63406	1.50783
3494.70541	1.52319
3492.77677	1.53808
3490.84812	1.55248
3488.91948	1.56641
3486.99083	1.57993
3485.06219	1.59313
3483.13354	1.60618
3481.20490	1.61926
3479.27625	1.63254
3477.34761	1.64611
3475.41896	1.65993
3473.49032	1.67385
3471.56167	1.68764
3469.63302	1.70113
3467.70438	1.71422
3465.77573	1.72687
3463.84709	1.73910
3461.91844	1.75099
3459.98980	1.76267
3458.06115	1.77428
3456.13251	1.78594
3454.20386	1.79769
3452.27522	1.80942
3450.34657	1.82088
3448.41793	1.83179
3446.48928	1.84191
3444.56064	1.85120
3442.63199	1.85981
3440.70334	1.86804
3438.77470	1.87622
3436.84605	1.88457
3434.91741	1.89311
3432.98876	1.90166
3431.06012	1.90999
3429.13147	1.91792
3427.20283	1.92542
3425.27418	1.93258
3423.34554	1.93953
3421.41689	1.94635
3419.48825	1.95300
3417.55960	1.95935
3415.63095	1.96524
3413.70231	1.97052
3411.77366	1.97512
3409.84502	1.97907
3407.91637	1.98243
3405.98773	1.98535
3404.05908	1.98796
3402.13044	1.99035
3400.20179	1.99255
3398.27315	1.99454
3396.34450	1.99625
3394.41586	1.99764
3392.48721	1.99873
3390.55856	1.99953
3388.62992	2.00000
3386.70127	1.99998
3384.77263	1.99928
3382.84398	1.99778
3380.91534	1.99545
3378.98669	1.99237
3377.05805	1.98875
3375.12940	1.98483
3373.20076	1.98081
3371.27211	1.97688
3369.34347	1.97317
3367.41482	1.96968
3365.48617	1.96629
3363.55753	1.96271
3361.62888	1.95866
3359.70024	1.95396
3357.77159	1.94862
3355.84295	1.94284
3353.91430	1.93679
3351.98566	1.93059
3350.05701	1.92420
3348.12837	1.91754
3346.19972	1.91057
3344.27108	1.90340
3342.34243	1.89623
3340.41378	1.88924
3338.48514	1.88245
3336.55649	1.87573
3334.62785	1.86885
3332.69920	1.86166
3330.77056	1.85411
3328.84191	1.84634
3326.91327	1.83854
3324.98462	1.83086
3323.05598	1.82336
3321.12733	1.81598
3319.19869	1.80859
3317.27004	1.80109
3315.34140	1.79344
3313.41275	1.78570
3311.48410	1.77801
3309.55546	1.77054
3307.62681	1.76343
3305.69817	1.75673
3303.76952	1.75044
3301.84088	1.74445
3299.91223	1.73860
3297.98359	1.73272
3296.05494	1.72666
3294.12630	1.72028
3292.19765	1.71351
3290.26901	1.70637
3288.34036	1.69897
3286.41171	1.69148
3284.48307	1.68407
3282.55442	1.67688
3280.62578	1.66995
3278.69713	1.66325
3276.76849	1.65678
3274.83984	1.65052
3272.91120	1.64448
3270.98255	1.63865
3269.05391	1.63287
3267.12526	1.62691
3265.19662	1.62045
3263.26797	1.61324
3261.33932	1.60521
3259.41068	1.59650
3257.48203	1.58741
3255.55339	1.57828
3253.62474	1.56942
3251.69610	1.56097
3249.76745	1.55289
3247.83881	1.54505
3245.91016	1.53723
3243.98152	1.52921
3242.05287	1.52087
3240.12423	1.51215
3238.19558	1.50309
3236.26693	1.49373
3234.33829	1.48412
3232.40964	1.47426
3230.48100	1.46419
3228.55235	1.45392
3226.62371	1.44357
3224.69506	1.43326
3222.76642	1.42306
3220.83777	1.41295
3218.90913	1.40277
3216.98048	1.39233
3215.05184	1.38148
3213.12319	1.37015
3211.19455	1.35847
3209.26590	1.34666
3207.33725	1.33491
3205.40861	1.32330
3203.47996	1.31184
3201.55132	1.30044
3199.62267	1.28897
3197.69403	1.27739
3195.76538	1.26574
3193.83674	1.25407
3191.90809	1.24240
3189.97945	1.23066
3188.05080	1.21877
3186.12216	1.20667
3184.19351	1.19437
3182.26486	1.18200
3180.33622	1.16975
3178.40757	1.15778
3176.47893	1.14611
3174.55028	1.13467
3172.62164	1.12329
3170.69299	1.11184
3168.76435	1.10027
3166.83570	1.08861
3164.90706	1.07700
3162.97841	1.06555
3161.04977	1.05437
3159.12112	1.04351
3157.19247	1.03296
3155.26383	1.02264
3153.33518	1.01246
3151.40654	1.00232
3149.47789	0.99214
3147.54925	0.98187
3145.62060	0.97154
3143.69196	0.96120
3141.76331	0.95089
3139.83467	0.94063
3137.90602	0.93045
3135.97738	0.92035
3134.04873	0.91037
3132.12008	0.90053
3130.19144	0.89086
3128.26279	0.88137
3126.33415	0.87207
3124.40550	0.86293
3122.47686	0.85393
3120.54821	0.84509
3118.61957	0.83647
3116.69092	0.82812
3114.76228	0.82008
3112.83363	0.81229
3110.90499	0.80464
3108.97634	0.79695
3107.04769	0.78909
3105.11905	0.78105
3103.19040	0.77291
3101.26176	0.76481
3099.33311	0.75688
3097.40447	0.74918
3095.47582	0.74173
3093.54718	0.73450
3091.61853	0.72747
3089.68989	0.72060
3087.76124	0.71384
3085.83260	0.70712
3083.90395	0.70032
3081.97531	0.69340
3080.04666	0.68633
3078.11801	0.67920
3076.18937	0.67213
3074.26072	0.66525
3072.33208	0.65863
3070.40343	0.65230
3068.47479	0.64623
3066.54614	0.64036
3064.61750	0.63461
3062.68885	0.62886
3060.76021	0.62294
3058.83156	0.61675
3056.90292	0.61023
3054.97427	0.60343
3053.04562	0.59652
3051.11698	0.58977
3049.18833	0.58342
3047.25969	0.57762
3045.33104	0.57237
3043.40240	0.56755
3041.47375	0.56293
3039.54511	0.55832
3037.61646	0.55356
3035.68782	0.54862
3033.75917	0.54355
3031.83053	0.53845
3029.90188	0.53344
3027.97323	0.52858
3026.04459	0.52391
3024.11594	0.51941
3022.18730	0.51499
3020.25865	0.51054
3018.33001	0.50598
3016.40136	0.50127
3014.47272	0.49642
3012.54407	0.49152
3010.61543	0.48680
3008.68678	0.48245
3006.75814	0.47865
3004.82949	0.47545
3002.90084	0.47273
3000.97220	0.47027
2999.04355	0.46782
2997.11491	0.46521
2995.18626	0.46244
2993.25762	0.45968
2991.32897	0.45716
2989.40033	0.45509
2987.47168	0.45355
2985.54304	0.45246
2983.61439	0.45166
2981.68575	0.45098
2979.75710	0.45030
2977.82845	0.44961
2975.89981	0.44900
2973.97116	0.44855
2972.04252	0.44835
2970.11387	0.44842
2968.18523	0.44870
2966.25658	0.44902
2964.32794	0.44926
2962.39929	0.44937
2960.47065	0.44937
2958.54200	0.44926
2956.61336	0.44906
2954.68471	0.44875
2952.75607	0.44831
2950.82742	0.44775
2948.89877	0.44715
2946.97013	0.44668
2945.04148	0.44648
2943.11284	0.44655
2941.18419	0.44677
2939.25555	0.44694
2937.32690	0.44691
2935.39826	0.44656
2933.46961	0.44584
2931.54097	0.44482
2929.61232	0.44358
2927.68368	0.44217
2925.75503	0.44056
2923.82638	0.43861
2921.89774	0.43608
2919.96909	0.43272
2918.04045	0.42832
2916.11180	0.42284
2914.18316	0.41654
2912.25451	0.40993
2910.32587	0.40355
2908.39722	0.39786
2906.46858	0.39313
2904.53993	0.38937
2902.61129	0.38634
2900.68264	0.38372
2898.75399	0.38121
2896.82535	0.37865
2894.89670	0.37602
2892.96806	0.37340
2891.03941	0.37086
2889.11077	0.36850
2887.18212	0.36631
2885.25348	0.36423
2883.32483	0.36215
2881.39619	0.36001
2879.46754	0.35779
2877.53890	0.35546
2875.61025	0.35296
2873.68160	0.35025
2871.75296	0.34735
2869.82431	0.34430
2867.89567	0.34122
2865.96702	0.33837
2864.03838	0.33604
2862.10973	0.33447
2860.18109	0.33377
2858.25244	0.33382
2856.32380	0.33415
2854.39515	0.33407
2852.46651	0.33290
2850.53786	0.33019
2848.60922	0.32586
2846.68057	0.32022
2844.75192	0.31399
2842.82328	0.30796
2840.89463	0.30272
2838.96599	0.29848
2837.03734	0.29518
2835.10870	0.29252
2833.18005	0.29007
2831.25141	0.28743
2829.32276	0.28453
2827.39412	0.28154
2825.46547	0.27878
2823.53683	0.27646
2821.60818	0.27468
2819.67953	0.27336
2817.75089	0.27223
2815.82224	0.27090
2813.89360	0.26911
2811.96495	0.26682
2810.03631	0.26413
2808.10766	0.26126
2806.17902	0.25850
2804.25037	0.25617
2802.32173	0.25441
2800.39308	0.25315
2798.46444	0.25223
2796.53579	0.25143
2794.60714	0.25049
2792.67850	0.24925
2790.74985	0.24775
2788.82121	0.24608
2786.89256	0.24440
2784.96392	0.24284
2783.03527	0.24151
2781.10663	0.24041
2779.17798	0.23943
2777.24934	0.23844
2775.32069	0.23734
2773.39205	0.23609
2771.46340	0.23465
2769.53475	0.23309
2767.60611	0.23153
2765.67746	0.23009
2763.74882	0.22883
2761.82017	0.22778
2759.89153	0.22689
2757.96288	0.22602
2756.03424	0.22500
2754.10559	0.22377
2752.17695	0.22241
2750.24830	0.22111
2748.31966	0.22004
2746.39101	0.21927
2744.46236	0.21873
2742.53372	0.21825
2740.60507	0.21759
2738.67643	0.21665
2736.74778	0.21544
2734.81914	0.21407
2732.89049	0.21264
2730.96185	0.21122
2729.03320	0.20984
2727.10456	0.20852
2725.17591	0.20729
2723.24727	0.20616
2721.31862	0.20516
2719.38998	0.20432
2717.46133	0.20364
2715.53268	0.20306
2713.60404	0.20243
2711.67539	0.20164
2709.74675	0.20063
2707.81810	0.19941
2705.88946	0.19807
2703.96081	0.19674
2702.03217	0.19558
2700.10352	0.19461
2698.17488	0.19377
2696.24623	0.19301
2694.31759	0.19231
2692.38894	0.19167
2690.46029	0.19105
2688.53165	0.19043
2686.60300	0.18977
2684.67436	0.18902
2682.74571	0.18819
2680.81707	0.18735
2678.88842	0.18658
2676.95978	0.18584
2675.03113	0.18506
2673.10249	0.18413
2671.17384	0.18296
2669.24520	0.18154
2667.31655	0.17997
2665.38790	0.17847
2663.45926	0.17720
2661.53061	0.17624
2659.60197	0.17552
2657.67332	0.17489
2655.74468	0.17422
2653.81603	0.17340
2651.88739	0.17240
2649.95874	0.17126
2648.03010	0.17001
2646.10145	0.16867
2644.17281	0.16726
2642.24416	0.16578
2640.31551	0.16433
2638.38687	0.16301
2636.45822	0.16187
2634.52958	0.16087
2632.60093	0.16000
2630.67229	0.15926
2628.74364	0.15868
2626.81500	0.15825
2624.88635	0.15794
2622.95771	0.15766
2621.02906	0.15727
2619.10042	0.15657
2617.17177	0.15554
2615.24312	0.15438
2613.31448	0.15329
2611.38583	0.15236
2609.45719	0.15164
2607.52854	0.15115
2605.59990	0.15082
2603.67125	0.15047
2601.74261	0.15000
2599.81396	0.14942
2597.88532	0.14879
2595.95667	0.14815
2594.02803	0.14754
2592.09938	0.14699
2590.17074	0.14643
2588.24209	0.14572
2586.31344	0.14474
2584.38480	0.14354
2582.45615	0.14238
2580.52751	0.14150
2578.59886	0.14096
2576.67022	0.14065
2574.74157	0.14042
2572.81293	0.14013
2570.88428	0.13971
2568.95564	0.13918
2567.02699	0.13867
2565.09835	0.13826
2563.16970	0.13795
2561.24105	0.13777
2559.31241	0.13781
2557.38376	0.13819
2555.45512	0.13882
2553.52647	0.13950
2551.59783	0.13996
2549.66918	0.13997
2547.74054	0.13947
2545.81189	0.13863
2543.88325	0.13777
2541.95460	0.13717
2540.02596	0.13702
2538.09731	0.13726
2536.16866	0.13767
2534.24002	0.13791
2532.31137	0.13770
2530.38273	0.13694
2528.45408	0.13581
2526.52544	0.13475
2524.59679	0.13427
2522.66815	0.13468
2520.73950	0.13587
2518.81086	0.13738
2516.88221	0.13857
2514.95357	0.13893
2513.02492	0.13830
2511.09627	0.13677
2509.16763	0.13472
2507.23898	0.13261
2505.31034	0.13083
2503.38169	0.12956
2501.45305	0.12888
2499.52440	0.12879
2497.59576	0.12921
2495.66711	0.12991
2493.73847	0.13065
2491.80982	0.13131
2489.88118	0.13190
2487.95253	0.13246
2486.02389	0.13302
2484.09524	0.13356
2482.16659	0.13401
2480.23795	0.13427
2478.30930	0.13425
2476.38066	0.13389
2474.45201	0.13332
2472.52337	0.13270
2470.59472	0.13215
2468.66608	0.13165
2466.73743	0.13123
2464.80879	0.13098
2462.88014	0.13089
2460.95150	0.13086
2459.02285	0.13085
2457.09420	0.13095
2455.16556	0.13116
2453.23691	0.13134
2451.30827	0.13141
2449.37962	0.13138
2447.45098	0.13130
2445.52233	0.13110
2443.59369	0.13076
2441.66504	0.13036
2439.73640	0.12994
2437.80775	0.12950
2435.87911	0.12906
2433.95046	0.12874
2432.02181	0.12871
2430.09317	0.12890
2428.16452	0.12916
2426.23588	0.12933
2424.30723	0.12938
2422.37859	0.12933
2420.44994	0.12929
2418.52130	0.12942
2416.59265	0.12982
2414.66401	0.13037
2412.73536	0.13087
2410.80672	0.13112
2408.87807	0.13109
2406.94942	0.13086
2405.02078	0.13062
2403.09213	0.13054
2401.16349	0.13070
2399.23484	0.13101
2397.30620	0.13133
2395.37755	0.13151
2393.44891	0.13153
2391.52026	0.13145
2389.59162	0.13142
2387.66297	0.13155
2385.73433	0.13193
2383.80568	0.13257
2381.87703	0.13345
2379.94839	0.13445
2378.01974	0.13540
2376.09110	0.13600
2374.16245	0.13590
2372.23381	0.13480
2370.30516	0.13258
2368.37652	0.12949
2366.44787	0.12617
2364.51923	0.12356
2362.59058	0.12250
2360.66194	0.12335
2358.73329	0.12590
2356.80465	0.12941
2354.87600	0.13294
2352.94735	0.13576
2351.01871	0.13764
2349.09006	0.13874
2347.16142	0.13930
2345.23277	0.13940
2343.30413	0.13900
2341.37548	0.13806
2339.44684	0.13673
2337.51819	0.13538
2335.58955	0.13447
2333.66090	0.13429
2331.73226	0.13478
2329.80361	0.13560
2327.87496	0.13631
2325.94632	0.13662
2324.01767	0.13645
2322.08903	0.13600
2320.16038	0.13551
2318.23174	0.13521
2316.30309	0.13523
2314.37445	0.13560
2312.44580	0.13620
2310.51716	0.13689
2308.58851	0.13748
2306.65987	0.13785
2304.73122	0.13789
2302.80257	0.13751
2300.87393	0.13666
2298.94528	0.13535
2297.01664	0.13365
2295.08799	0.13166
2293.15935	0.12959
2291.23070	0.12770
2289.30206	0.12620
2287.37341	0.12525
2285.44477	0.12492
2283.51612	0.12523
2281.58748	0.12611
2279.65883	0.12740
2277.73018	0.12879
2275.80154	0.12981
2273.87289	0.12994
2271.94425	0.12888
2270.01560	0.12672
2268.08696	0.12406
2266.15831	0.12176
2264.22967	0.12069
2262.30102	0.12129
2260.37238	0.12343
2258.44373	0.12638
2256.51509	0.12916
2254.58644	0.13089
2252.65779	0.13102
2250.72915	0.12952
2248.80050	0.12692
2246.87186	0.12426
2244.94321	0.12254
2243.01457	0.12220
2241.08592	0.12303
2239.15728	0.12435
2237.22863	0.12504
2235.29999	0.12404
2233.37134	0.12133
2231.44270	0.11799
2229.51405	0.11545
2227.58541	0.11476
2225.65676	0.11631
2223.72811	0.11951
2221.79947	0.12267
2219.87082	0.12398
2217.94218	0.12277
2216.01353	0.11980
2214.08489	0.11663
2212.15624	0.11482
2210.22760	0.11518
2208.29895	0.11719
2206.37031	0.11916
2204.44166	0.11955
2202.51302	0.11825
2200.58437	0.11665
2198.65572	0.11648
2196.72708	0.11838
2194.79843	0.12153
2192.86979	0.12396
2190.94114	0.12353
2189.01250	0.11933
2187.08385	0.11268
2185.15521	0.10633
2183.22656	0.10251
2181.29792	0.10177
2179.36927	0.10327
2177.44063	0.10536
2175.51198	0.10606
2173.58333	0.10428
2171.65469	0.10046
2169.72604	0.09599
2167.79740	0.09199
2165.86875	0.08885
2163.94011	0.08632
2162.01146	0.08376
2160.08282	0.08050
2158.15417	0.07669
2156.22553	0.07353
2154.29688	0.07247
2152.36824	0.07402
2150.43959	0.07747
2148.51094	0.08168
2146.58230	0.08584
2144.65365	0.08973
2142.72501	0.09362
2140.79636	0.09796
2138.86772	0.10269
2136.93907	0.10689
2135.01043	0.10952
2133.08178	0.11044
2131.15314	0.11047
2129.22449	0.11067
2127.29585	0.11179
2125.36720	0.11404
2123.43856	0.11698
2121.50991	0.11975
2119.58126	0.12154
2117.65262	0.12209
2115.72397	0.12167
2113.79533	0.12080
2111.86668	0.11994
2109.93804	0.11932
2108.00939	0.11883
2106.08075	0.11800
2104.15210	0.11644
2102.22346	0.11423
2100.29481	0.11206
2098.36617	0.11073
2096.43752	0.11069
2094.50887	0.11196
2092.58023	0.11408
2090.65158	0.11630
2088.72294	0.11794
2086.79429	0.11864
2084.86565	0.11838
2082.93700	0.11730
2081.00836	0.11570
2079.07971	0.11402
2077.15107	0.11277
2075.22242	0.11235
2073.29378	0.11283
2071.36513	0.11396
2069.43648	0.11519
2067.50784	0.11601
2065.57919	0.11615
2063.65055	0.11564
2061.72190	0.11469
2059.79326	0.11348
2057.86461	0.11184
2055.93597	0.10927
2054.00732	0.10511
2052.07868	0.09908
2050.15003	0.09153
2048.22139	0.08345
2046.29274	0.07623
2044.36409	0.07126
2042.43545	0.06935
2040.50680	0.07023
2038.57816	0.07247
2036.64951	0.07394
2034.72087	0.07263
2032.79222	0.06762
2030.86358	0.05973
2028.93493	0.05146
2027.00629	0.04599
2025.07764	0.04578
2023.14900	0.05154
2021.22035	0.06201
2019.29170	0.07461
2017.36306	0.08645
2015.43441	0.09527
2013.50577	0.09950
2011.57712	0.09939
2009.64848	0.09550
2007.71983	0.08885
2005.79119	0.08078
2003.86254	0.07267
2001.93390	0.06583
2000.00525	0.06123
1998.07661	0.05942
1996.14796	0.06050
1994.21932	0.06416
1992.29067	0.06976
1990.36202	0.07641
1988.43338	0.08299
1986.50473	0.08817
1984.57609	0.09068
1982.64744	0.08972
1980.71880	0.08530
1978.79015	0.07838
1976.86151	0.07075
1974.93286	0.06451
1973.00422	0.06121
1971.07557	0.06124
1969.14693	0.06370
1967.21828	0.06704
1965.28963	0.06982
1963.36099	0.07128
1961.43234	0.07143
1959.50370	0.07085
1957.57505	0.07016
1955.64641	0.06985
1953.71776	0.07023
1951.78912	0.07143
1949.86047	0.07346
1947.93183	0.07612
1946.00318	0.07896
1944.07454	0.08141
1942.14589	0.08300
1940.21724	0.08366
1938.28860	0.08373
1936.35995	0.08362
1934.43131	0.08362
1932.50266	0.08378
1930.57402	0.08401
1928.64537	0.08418
1926.71673	0.08424
1924.78808	0.08425
1922.85944	0.08439
1920.93079	0.08473
1919.00215	0.08523
1917.07350	0.08569
1915.14485	0.08587
1913.21621	0.08553
1911.28756	0.08452
1909.35892	0.08286
1907.43027	0.08079
1905.50163	0.07867
1903.57298	0.07681
1901.64434	0.07538
1899.71569	0.07436
1897.78705	0.07361
1895.85840	0.07299
1893.92976	0.07245
1892.00111	0.07207
1890.07246	0.07194
1888.14382	0.07213
1886.21517	0.07256
1884.28653	0.07309
1882.35788	0.07358
1880.42924	0.07401
1878.50059	0.07433
1876.57195	0.07448
1874.64330	0.07437
1872.71466	0.07391
1870.78601	0.07304
1868.85737	0.07190
1866.92872	0.07081
1865.00008	0.07011
1863.07143	0.06997
1861.14278	0.07027
1859.21414	0.07067
1857.28549	0.07080
1855.35685	0.07042
1853.42820	0.06956
1851.49956	0.06850
1849.57091	0.06758
1847.64227	0.06707
1845.71362	0.06700
1843.78498	0.06725
1841.85633	0.06760
1839.92769	0.06786
1837.99904	0.06793
1836.07039	0.06782
1834.14175	0.06765
1832.21310	0.06756
1830.28446	0.06761
1828.35581	0.06779
1826.42717	0.06801
1824.49852	0.06813
1822.56988	0.06810
1820.64123	0.06791
1818.71259	0.06767
1816.78394	0.06752
1814.85530	0.06756
1812.92665	0.06784
1810.99800	0.06836
1809.06936	0.06906
1807.14071	0.06985
1805.21207	0.07065
1803.28342	0.07140
1801.35478	0.07208
1799.42613	0.07268
1797.49749	0.07326
1795.56884	0.07387
1793.64020	0.07459
1791.71155	0.07543
1789.78291	0.07639
1787.85426	0.07744
1785.92561	0.07859
1783.99697	0.07985
1782.06832	0.08129
1780.13968	0.08299
1778.21103	0.08497
1776.28239	0.08716
1774.35374	0.08939
1772.42510	0.09143
1770.49645	0.09309
1768.56781	0.09430
1766.63916	0.09513
1764.71052	0.09584
1762.78187	0.09673
1760.85322	0.09802
1758.92458	0.09980
1756.99593	0.10204
1755.06729	0.10465
1753.13864	0.10754
1751.21000	0.11069
1749.28135	0.11411
1747.35271	0.11781
1745.42406	0.12178
1743.49542	0.12600
1741.56677	0.13040
1739.63813	0.13496
1737.70948	0.13961
1735.78084	0.14430
1733.85219	0.14896
1731.92354	0.15350
1729.99490	0.15792
1728.06625	0.16231
1726.13761	0.16683
1724.20896	0.17164
1722.28032	0.17685
1720.35167	0.18245
1718.42303	0.18832
1716.49438	0.19434
1714.56574	0.20039
1712.63709	0.20650
1710.70845	0.21278
1708.77980	0.21942
1706.85115	0.22660
1704.92251	0.23448
1702.99386	0.24312
1701.06522	0.25253
1699.13657	0.26268
1697.20793	0.27356
1695.27928	0.28524
1693.35064	0.29784
1691.42199	0.31149
1689.49335	0.32632
1687.56470	0.34233
1685.63606	0.35939
1683.70741	0.37728
1681.77876	0.39576
1679.85012	0.41465
1677.92147	0.43391
1675.99283	0.45354
1674.06418	0.47360
1672.13554	0.49414
1670.20689	0.51514
1668.27825	0.53653
1666.34960	0.55821
1664.42096	0.58005
1662.49231	0.60185
1660.56367	0.62333
1658.63502	0.64407
1656.70637	0.66366
1654.77773	0.68171
1652.84908	0.69797
1650.92044	0.71236
1648.99179	0.72494
1647.06315	0.73589
1645.13450	0.74535
1643.20586	0.75341
1641.27721	0.76007
1639.34857	0.76532
1637.41992	0.76908
1635.49128	0.77134
1633.56263	0.77208
1631.63399	0.77137
1629.70534	0.76928
1627.77669	0.76591
1625.84805	0.76138
1623.91940	0.75582
1621.99076	0.74935
1620.06211	0.74206
1618.13347	0.73403
1616.20482	0.72529
1614.27618	0.71587
1612.34753	0.70578
1610.41889	0.69506
1608.49024	0.68371
1606.56160	0.67174
1604.63295	0.65917
1602.70430	0.64604
1600.77566	0.63243
1598.84701	0.61844
1596.91837	0.60422
1594.98972	0.58991
1593.06108	0.57561
1591.13243	0.56144
1589.20379	0.54747
1587.27514	0.53382
1585.34650	0.52056
1583.41785	0.50773
1581.48921	0.49529
1579.56056	0.48313
1577.63191	0.47107
1575.70327	0.45891
1573.77462	0.44656
1571.84598	0.43403
1569.91733	0.42145
1567.98869	0.40900
1566.06004	0.39687
1564.13140	0.38514
1562.20275	0.37380
1560.27411	0.36272
1558.34546	0.35177
1556.41682	0.34087
1554.48817	0.33005
1552.55952	0.31941
1550.63088	0.30909
1548.70223	0.29921
1546.77359	0.28980
1544.84494	0.28083
1542.91630	0.27220
1540.98765	0.26385
1539.05901	0.25579
1537.13036	0.24815
1535.20172	0.24115
1533.27307	0.23504
1531.34443	0.23004
1529.41578	0.22633
1527.48713	0.22391
1525.55849	0.22263
1523.62984	0.22216
1521.70120	0.22199
1519.77255	0.22156
1517.84391	0.22038
1515.91526	0.21812
1513.98662	0.21471
1512.05797	0.21035
1510.12933	0.20545
1508.20068	0.20053
1506.27204	0.19613
1504.34339	0.19266
1502.41475	0.19033
1500.48610	0.18906
1498.55745	0.18849
1496.62881	0.18812
1494.70016	0.18748
1492.77152	0.18630
1490.84287	0.18463
1488.91423	0.18284
1486.98558	0.18152
1485.05694	0.18132
1483.12829	0.18274
1481.19965	0.18603
1479.27100	0.19108
1477.34236	0.19749
1475.41371	0.20468
1473.48506	0.21205
1471.55642	0.21913
1469.62777	0.22569
1467.69913	0.23174
1465.77048	0.23740
1463.84184	0.24278
1461.91319	0.24784
1459.98455	0.25239
1458.05590	0.25611
1456.12726	0.25872
1454.19861	0.26008
1452.26997	0.26032
1450.34132	0.25979
1448.41267	0.25898
1446.48403	0.25846
1444.55538	0.25872
1442.62674	0.26015
1440.69809	0.26291
1438.76945	0.26699
1436.84080	0.27227
1434.91216	0.27853
1432.98351	0.28556
1431.05487	0.29312
1429.12622	0.30098
1427.19758	0.30888
1425.26893	0.31649
1423.34028	0.32349
1421.41164	0.32962
1419.48299	0.33480
1417.55435	0.33912
1415.62570	0.34281
1413.69706	0.34619
1411.76841	0.34946
1409.83977	0.35269
1407.91112	0.35569
1405.98248	0.35803
1404.05383	0.35917
1402.12519	0.35861
1400.19654	0.35601
1398.26789	0.35137
1396.33925	0.34503
1394.41060	0.33755
1392.48196	0.32961
1390.55331	0.32184
1388.62467	0.31468
1386.69602	0.30837
1384.76738	0.30294
1382.83873	0.29825
1380.91009	0.29410
1378.98144	0.29023
1377.05280	0.28644
1375.12415	0.28256
1373.19551	0.27852
1371.26686	0.27437
1369.33821	0.27025
1367.40957	0.26634
1365.48092	0.26283
1363.55228	0.25987
1361.62363	0.25752
1359.69499	0.25577
1357.76634	0.25456
1355.83770	0.25387
1353.90905	0.25365
1351.98041	0.25386
1350.05176	0.25439
1348.12312	0.25505
1346.19447	0.25553
1344.26582	0.25552
1342.33718	0.25477
1340.40853	0.25316
1338.47989	0.25070
1336.55124	0.24752
1334.62260	0.24381
1332.69395	0.23975
1330.76531	0.23549
1328.83666	0.23113
1326.90802	0.22679
1324.97937	0.22259
1323.05073	0.21863
1321.12208	0.21500
1319.19343	0.21173
1317.26479	0.20881
1315.33614	0.20619
1313.40750	0.20385
1311.47885	0.20182
1309.55021	0.20014
1307.62156	0.19887
1305.69292	0.19798
1303.76427	0.19742
1301.83563	0.19711
1299.90698	0.19694
1297.97834	0.19689
1296.04969	0.19694
1294.12104	0.19712
1292.19240	0.19748
1290.26375	0.19805
1288.33511	0.19886
1286.40646	0.19995
1284.47782	0.20129
1282.54917	0.20284
1280.62053	0.20448
1278.69188	0.20611
1276.76324	0.20767
1274.83459	0.20917
1272.90595	0.21070
1270.97730	0.21235
1269.04866	0.21419
1267.12001	0.21614
1265.19136	0.21799
1263.26272	0.21946
1261.33407	0.22025
1259.40543	0.22020
1257.47678	0.21935
1255.54814	0.21795
1253.61949	0.21638
1251.69085	0.21503
1249.76220	0.21413
1247.83356	0.21376
1245.90491	0.21381
1243.97627	0.21408
1242.04762	0.21438
1240.11897	0.21460
1238.19033	0.21473
1236.26168	0.21478
1234.33304	0.21479
1232.40439	0.21475
1230.47575	0.21463
1228.54710	0.21437
1226.61846	0.21394
1224.68981	0.21337
1222.76117	0.21270
1220.83252	0.21199
1218.90388	0.21129
1216.97523	0.21062
1215.04658	0.21000
1213.11794	0.20945
1211.18929	0.20901
1209.26065	0.20873
1207.33200	0.20862
1205.40336	0.20872
1203.47471	0.20907
1201.54607	0.20977
1199.61742	0.21090
1197.68878	0.21257
1195.76013	0.21497
1193.83149	0.21822
1191.90284	0.22241
1189.97419	0.22749
1188.04555	0.23338
1186.11690	0.23986
1184.18826	0.24662
1182.25961	0.25339
1180.33097	0.25999
1178.40232	0.26641
1176.47368	0.27278
1174.54503	0.27933
1172.61639	0.28640
1170.68774	0.29420
1168.75910	0.30273
1166.83045	0.31174
1164.90180	0.32076
1162.97316	0.32921
1161.04451	0.33657
1159.11587	0.34267
1157.18722	0.34778
1155.25858	0.35250
1153.32993	0.35751
1151.40129	0.36339
1149.47264	0.37035
1147.54400	0.37821
1145.61535	0.38653
1143.68671	0.39483
1141.75806	0.40290
1139.82942	0.41079
1137.90077	0.41869
1135.97212	0.42684
1134.04348	0.43533
1132.11483	0.44416
1130.18619	0.45316
1128.25754	0.46210
1126.32890	0.47083
1124.40025	0.47931
1122.47161	0.48755
1120.54296	0.49564
1118.61432	0.50384
1116.68567	0.51256
1114.75703	0.52218
1112.82838	0.53287
1110.89973	0.54453
1108.97109	0.55669
1107.04244	0.56863
1105.11380	0.57958
1103.18515	0.58907
1101.25651	0.59713
1099.32786	0.60430
1097.39922	0.61150
1095.47057	0.61988
1093.54193	0.63051
1091.61328	0.64406
1089.68464	0.66065
1087.75599	0.67981
1085.82734	0.70046
1083.89870	0.72109
1081.97005	0.73996
1080.04141	0.75554
1078.11276	0.76678
1076.18412	0.77329
1074.25547	0.77549
1072.32683	0.77435
1070.39818	0.77103
1068.46954	0.76655
1066.54089	0.76160
1064.61225	0.75644
1062.68360	0.75099
1060.75495	0.74500
1058.82631	0.73820
1056.89766	0.73033
1054.96902	0.72120
1053.04037	0.71079
1051.11173	0.69934
1049.18308	0.68721
1047.25444	0.67484
1045.32579	0.66275
1043.39715	0.65134
1041.46850	0.64074
1039.53986	0.63089
1037.61121	0.62152
1035.68256	0.61221
1033.75392	0.60238
1031.82527	0.59151
1029.89663	0.57945
1027.96798	0.56648
1026.03934	0.55330
1024.11069	0.54073
1022.18205	0.52940
1020.25340	0.51949
1018.32476	0.51068
1016.39611	0.50235
1014.46747	0.49413
1012.53882	0.48616
1010.61018	0.47900
1008.68153	0.47328
1006.75288	0.46935
1004.82424	0.46713
1002.89559	0.46597
1000.96695	0.46498
999.03830	0.46335
997.10966	0.46050
995.18101	0.45607
993.25237	0.44981
991.32372	0.44152
989.39508	0.43095
987.46643	0.41783
985.53779	0.40210
983.60914	0.38410
981.68049	0.36444
979.75185	0.34394
977.82320	0.32353
975.89456	0.30411
973.96591	0.28627
972.03727	0.27026
970.10862	0.25624
968.17998	0.24435
966.25133	0.23464
964.32269	0.22697
962.39404	0.22124
960.46540	0.21736
958.53675	0.21512
956.60810	0.21421
954.67946	0.21435
952.75081	0.21523
950.82217	0.21643
948.89352	0.21765
946.96488	0.21894
945.03623	0.22058
943.10759	0.22286
941.17894	0.22580
939.25030	0.22904
937.32165	0.23185
935.39301	0.23348
933.46436	0.23352
931.53571	0.23214
929.60707	0.22976
927.67842	0.22683
925.74978	0.22351
923.82113	0.21963
921.89249	0.21482
919.96384	0.20886
918.03520	0.20195
916.10655	0.19459
914.17791	0.18747
912.24926	0.18125
910.32062	0.17641
908.39197	0.17310
906.46333	0.17104
904.53468	0.16978
902.60603	0.16886
900.67739	0.16790
898.74874	0.16672
896.82010	0.16547
894.89145	0.16452
892.96281	0.16418
891.03416	0.16451
889.10552	0.16542
887.17687	0.16688
885.24823	0.16884
883.31958	0.17132
881.39094	0.17445
879.46229	0.17831
877.53364	0.18275
875.60500	0.18734
873.67635	0.19150
871.74771	0.19480
869.81906	0.19707
867.89042	0.19840
865.96177	0.19901
864.03313	0.19918
862.10448	0.19910
860.17584	0.19882
858.24719	0.19838
856.31855	0.19794
854.38990	0.19787
852.46125	0.19851
850.53261	0.19996
848.60396	0.20208
846.67532	0.20456
844.74667	0.20711
842.81803	0.20960
840.88938	0.21203
838.96074	0.21448
837.03209	0.21700
835.10345	0.21960
833.17480	0.22222
831.24616	0.22476
829.31751	0.22720
827.38886	0.22961
825.46022	0.23207
823.53157	0.23463
821.60293	0.23738
819.67428	0.24044
817.74564	0.24391
815.81699	0.24779
813.88835	0.25217
811.95970	0.25735
810.03106	0.26379
808.10241	0.27180
806.17377	0.28135
804.24512	0.29190
802.31647	0.30244
800.38783	0.31171
798.45918	0.31862
796.53054	0.32279
794.60189	0.32474
792.67325	0.32561
790.74460	0.32677
788.81596	0.32928
786.88731	0.33355
784.95867	0.33920
783.03002	0.34520
781.10138	0.35047
779.17273	0.35432
777.24409	0.35660
775.31544	0.35751
773.38679	0.35744
771.45815	0.35679
769.52950	0.35597
767.60086	0.35542
765.67221	0.35565
763.74357	0.35699
761.81492	0.35941
759.88628	0.36249
757.95763	0.36553
756.02899	0.36786
754.10034	0.36920
752.17170	0.36985
750.24305	0.37049
748.31440	0.37171
746.38576	0.37375
744.45711	0.37660
742.52847	0.38000
740.59982	0.38359
738.67118	0.38706
736.74253	0.39041
734.81389	0.39388
732.88524	0.39768
730.95660	0.40179
729.02795	0.40601
727.09931	0.41003
725.17066	0.41352
723.24201	0.41628
721.31337	0.41840
719.38472	0.42025
717.45608	0.42224
715.52743	0.42460
713.59879	0.42734
711.67014	0.43037
709.74150	0.43352
707.81285	0.43663
705.88421	0.43963
703.95556	0.44251
702.02692	0.44528
700.09827	0.44792
698.16962	0.45038
696.24098	0.45258
694.31233	0.45450
692.38369	0.45623
690.45504	0.45787
688.52640	0.45956
686.59775	0.46138
684.66911	0.46324
682.74046	0.46501
680.81182	0.46661
678.88317	0.46814
676.95453	0.46983
675.02588	0.47190
673.09723	0.47438
671.16859	0.47709
669.23994	0.47960
667.31130	0.48147
665.38265	0.48245
663.45401	0.48266
661.52536	0.48239
659.59672	0.48198
657.66807	0.48177
655.73943	0.48199
653.81078	0.48273
651.88214	0.48394
649.95349	0.48554
648.02485	0.48741
646.09620	0.48947
644.16755	0.49170
642.23891	0.49421
640.31026	0.49708
638.38162	0.50032
636.45297	0.50376
634.52433	0.50709
632.59568	0.51006
630.66704	0.51272
628.73839	0.51547
626.80975	0.51877
624.88110	0.52279
622.95246	0.52730
621.02381	0.53192
619.09516	0.53630
617.16652	0.54025
615.23787	0.54383
613.30923	0.54729
611.38058	0.55067
609.45194	0.55351
607.52329	0.55516
605.59465	0.55524
603.66600	0.55364
601.73736	0.55040
599.80871	0.54572
597.88007	0.54026
595.95142	0.53511
594.02277	0.53143
592.09413	0.53015
590.16548	0.53160
588.23684	0.53525
586.30819	0.53979
584.37955	0.54373
582.45090	0.54616
580.52226	0.54714
578.59361	0.54748
576.66497	0.54811
574.73632	0.54960
572.80768	0.55193
570.87903	0.55474
568.95038	0.55764
567.02174	0.56052
565.09309	0.56363
563.16445	0.56744
561.23580	0.57214
559.30716	0.57751
557.37851	0.58298
555.44987	0.58798
553.52122	0.59230
551.59258	0.59614
549.66393	0.60012
547.73529	0.60498
545.80664	0.61115
543.87800	0.61847
541.94935	0.62633
540.02070	0.63388
538.09206	0.64032
536.16341	0.64503
534.23477	0.64775
532.30612	0.64856
530.37748	0.64776
528.44883	0.64559
526.52019	0.64235
524.59154	0.63844
522.66290	0.63433
520.73425	0.63040
518.80561	0.62689
516.87696	0.62379
514.94831	0.62077
513.01967	0.61717
511.09102	0.61229
509.16238	0.60565
507.23373	0.59723
505.30509	0.58750
503.37644	0.57734
501.44780	0.56787
499.51915	0.56004
497.59051	0.55439
495.66186	0.55083
493.73322	0.54886
491.80457	0.54790
489.87592	0.54760
487.94728	0.54807
486.01863	0.54976
484.08999	0.55317
482.16134	0.55853
480.23270	0.56553
478.30405	0.57341
476.37541	0.58114
474.44676	0.58761
472.51812	0.59186
470.58947	0.59324
468.66083	0.59154
466.73218	0.58698
464.80353	0.58013
462.87489	0.57186
460.94624	0.56312
459.01760	0.55451
457.08895	0.54612
455.16031	0.53757
453.23166	0.52829
451.30302	0.51784
449.37437	0.50621
447.44573	0.49394
445.51708	0.48196
443.58844	0.47120
441.65979	0.46227
439.73114	0.45538
437.80250	0.45044
435.87385	0.44713
433.94521	0.44498
432.01656	0.44340
430.08792	0.44174
428.15927	0.43941
426.23063	0.43600
424.30198	0.43146
422.37334	0.42605
420.44469	0.42012
418.51605	0.41383
416.58740	0.40704
414.65876	0.39936
412.73011	0.39053
410.80146	0.38081
408.87282	0.37113
406.94417	0.36278
405.01553	0.35686
403.08688	0.35360
401.15824	0.35217
399.22959	0.35087
397.30095	0.34783
395.37230	0.34180
393.44366	0.33258
391.51501	0.32095
389.58637	0.30827
387.65772	0.29593
385.72907	0.28500
383.80043	0.27608
381.87178	0.26937
379.94314	0.26480
378.01449	0.26202
376.08585	0.26040
374.15720	0.25905
372.22856	0.25696
370.29991	0.25326
368.37127	0.24749
366.44262	0.23970
364.51398	0.23049
362.58533	0.22071
360.65668	0.21120
358.72804	0.20242
356.79939	0.19446
354.87075	0.18710
352.94210	0.18009
351.01346	0.17319
349.08481	0.16626
347.15617	0.15921
345.22752	0.15194
343.29888	0.14437
341.37023	0.13646
339.44159	0.12836
337.51294	0.12037
335.58429	0.11280
333.65565	0.10584
331.72700	0.09951
329.79836	0.09365
327.86971	0.08796
325.94107	0.08215
324.01242	0.07610
322.08378	0.06986
320.15513	0.06370
318.22649	0.05742
316.29784	0.05129
314.36920	0.04580
312.44055	0.04156
310.51190	0.03916
308.58326	0.03880
306.65461	0.04001
304.72597	0.04164
302.79732	0.04244
300.86868	0.04163
298.94003	0.03933
297.01139	0.03634
295.08274	0.03363
293.15410	0.03166
291.22545	0.03008
289.29681	0.02797
287.36816	0.02459
285.43952	0.01996
283.51087	0.01479
281.58222	0.01013
279.65358	0.00677
277.72493	0.00486
275.79629	0.00387
273.86764	0.00312
271.93900	0.00228
270.01035	0.00161
268.08171	0.00175
266.15306	0.00330
264.22442	0.00640
262.29577	0.01051
260.36713	0.01453
258.43848	0.01739
256.50983	0.01859
254.58119	0.01847
252.65254	0.01796
250.72390	0.01817
248.79525	0.01981
246.86661	0.02289
244.93796	0.02664
243.00932	0.03001
241.08067	0.03210
239.15203	0.03240
237.22338	0.03083
235.29474	0.02774
233.36609	0.02389
231.43744	0.02035
229.50880	0.01826
227.58015	0.01844
225.65151	0.02093
223.72286	0.02486
221.79422	0.02888
219.86557	0.03198
217.93693	0.03395
216.00828	0.03537
214.07964	0.03703
212.15099	0.03925
210.22235	0.04150
208.29370	0.04284
206.36505	0.04288
204.43641	0.04240
202.50776	0.04322
200.57912	0.04726
198.65047	0.05535
196.72183	0.06660
194.79318	0.07878
192.86454	0.08931
190.93589	0.09628
189.00725	0.09901
187.07860	0.09806
185.14996	0.09466
183.22131	0.09005
181.29267	0.08496
179.36402	0.07936
177.43537	0.07251
175.50673	0.06344
173.57808	0.05156
171.64944	0.03716
169.72079	0.02179
167.79215	0.00828
165.86350	0.00014
163.93486	0.00000
162.00621	0.00918
160.07757	0.02347
158.14892	0.03859
156.22028	0.05096
154.29163	0.05096
152.36298	0.05096
150.43434	0.05096
148.50569	0.05096
