4497.60101	0.15388
4495.67236	0.15388
4493.74372	0.15388
4491.81507	0.15388
4489.88643	0.15388
4487.95778	0.15694
4486.02914	0.16319
4484.10049	0.17075
4482.17185	0.17628
4480.24320	0.17669
4478.31455	0.16982
4476.38591	0.15867
4474.45726	0.14822
4472.52862	0.14236
4470.59997	0.14222
4468.67133	0.14629
4466.74268	0.15190
4464.81404	0.15700
4462.88539	0.16132
4460.95675	0.16578
4459.02810	0.17034
4457.09946	0.17318
4455.17081	0.17239
4453.24216	0.16795
4451.31352	0.16162
4449.38487	0.15559
4447.45623	0.15136
4445.52758	0.14897
4443.59894	0.14643
4441.67029	0.14107
4439.74165	0.13228
4437.81300	0.12281
4435.88436	0.11677
4433.95571	0.11662
4432.02707	0.12217
4430.09842	0.13116
4428.16978	0.14027
4426.24113	0.14635
4424.31248	0.14824
4422.38384	0.14774
4420.45519	0.14784
4418.52655	0.14984
4416.59790	0.15287
4414.66926	0.15542
4412.74061	0.15647
4410.81197	0.15559
4408.88332	0.15327
4406.95468	0.15114
4405.02603	0.15079
4403.09739	0.15205
4401.16874	0.15326
4399.24009	0.15311
4397.31145	0.15174
4395.38280	0.15017
4393.45416	0.14950
4391.52551	0.15040
4389.59687	0.15247
4387.66822	0.15411
4385.73958	0.15337
4383.81093	0.14964
4381.88229	0.14429
4379.95364	0.14000
4378.02500	0.13940
4376.09635	0.14344
4374.16770	0.15078
4372.23906	0.15860
4370.31041	0.16409
4368.38177	0.16511
4366.45312	0.16126
4364.52448	0.15457
4362.59583	0.14796
4360.66719	0.14276
4358.73854	0.13864
4356.80990	0.13557
4354.88125	0.13410
4352.95261	0.13406
4351.02396	0.13502
4349.09531	0.13755
4347.16667	0.14195
4345.23802	0.14686
4343.30938	0.15059
4341.38073	0.15291
4339.45209	0.15475
4337.52344	0.15697
4335.59480	0.16010
4333.66615	0.16425
4331.73751	0.16848
4329.80886	0.17117
4327.88022	0.17131
4325.95157	0.16912
4324.02292	0.16564
4322.09428	0.16202
4320.16563	0.15899
4318.23699	0.15647
4316.30834	0.15385
4314.37970	0.15048
4312.45105	0.14649
4310.52241	0.14305
4308.59376	0.14168
4306.66512	0.14323
4304.73647	0.14769
4302.80783	0.15455
4300.87918	0.16258
4298.95054	0.16959
4297.02189	0.17341
4295.09324	0.17308
4293.16460	0.16888
4291.23595	0.16169
4289.30731	0.15311
4287.37866	0.14538
4285.45002	0.14063
4283.52137	0.14013
4281.59273	0.14402
4279.66408	0.15129
4277.73544	0.15981
4275.80679	0.16684
4273.87815	0.17017
4271.94950	0.16911
4270.02085	0.16462
4268.09221	0.15871
4266.16356	0.15346
4264.23492	0.15046
4262.30627	0.15029
4260.37763	0.15239
4258.44898	0.15569
4256.52034	0.15931
4254.59169	0.16238
4252.66305	0.16382
4250.73440	0.16287
4248.80576	0.15976
4246.87711	0.15586
4244.94846	0.15318
4243.01982	0.15377
4241.09117	0.15832
4239.16253	0.16511
4237.23388	0.17037
4235.30524	0.17029
4233.37659	0.16310
4231.44795	0.14995
4229.51930	0.13436
4227.59066	0.12058
4225.66201	0.11163
4223.73337	0.10827
4221.80472	0.10925
4219.87607	0.11268
4217.94743	0.11719
4216.01878	0.12200
4214.09014	0.12656
4212.16149	0.13068
4210.23285	0.13481
4208.30420	0.13958
4206.37556	0.14513
4204.44691	0.15104
4202.51827	0.15637
4200.58962	0.15966
4198.66098	0.15930
4196.73233	0.15477
4194.80368	0.14717
4192.87504	0.13873
4190.94639	0.13198
4189.01775	0.12900
4187.08910	0.13078
4185.16046	0.13674
4183.23181	0.14469
4181.30317	0.15162
4179.37452	0.15498
4177.44588	0.15392
4175.51723	0.14944
4173.58859	0.14366
4171.65994	0.13879
4169.73130	0.13628
4167.80265	0.13613
4165.87400	0.13720
4163.94536	0.13851
4162.01671	0.13975
4160.08807	0.14087
4158.15942	0.14169
4156.23078	0.14221
4154.30213	0.14248
4152.37349	0.14245
4150.44484	0.14230
4148.51620	0.14276
4146.58755	0.14428
4144.65891	0.14634
4142.73026	0.14819
4140.80161	0.14985
4138.87297	0.15167
4136.94432	0.15348
4135.01568	0.15489
4133.08703	0.15534
4131.15839	0.15355
4129.22974	0.14810
4127.30110	0.13929
4125.37245	0.12977
4123.44381	0.12290
4121.51516	0.12101
4119.58652	0.12471
4117.65787	0.13244
4115.72922	0.14077
4113.80058	0.14635
4111.87193	0.14822
4109.94329	0.14811
4108.01464	0.14896
4106.08600	0.15298
4104.15735	0.16026
4102.22871	0.16835
4100.30006	0.17317
4098.37142	0.17118
4096.44277	0.16166
4094.51413	0.14734
4092.58548	0.13313
4090.65683	0.12381
4088.72819	0.12194
4086.79954	0.12666
4084.87090	0.13411
4082.94225	0.13956
4081.01361	0.14027
4079.08496	0.13685
4077.15632	0.13240
4075.22767	0.13054
4073.29903	0.13338
4071.37038	0.14032
4069.44174	0.14838
4067.51309	0.15407
4065.58444	0.15535
4063.65580	0.15237
4061.72715	0.14666
4059.79851	0.13981
4057.86986	0.13295
4055.94122	0.12692
4054.01257	0.12259
4052.08393	0.12075
4050.15528	0.12186
4048.22664	0.12599
4046.29799	0.13223
4044.36935	0.13828
4042.44070	0.14164
4040.51206	0.14138
4038.58341	0.13821
4036.65476	0.13348
4034.72612	0.12862
4032.79747	0.12516
4030.86883	0.12383
4028.94018	0.12412
4027.01154	0.12552
4025.08289	0.12822
4023.15425	0.13227
4021.22560	0.13699
4019.29696	0.14132
4017.36831	0.14400
4015.43967	0.14359
4013.51102	0.13946
4011.58237	0.13320
4009.65373	0.12787
4007.72508	0.12596
4005.79644	0.12833
4003.86779	0.13407
4001.93915	0.14067
4000.01050	0.14512
3998.08186	0.14575
3996.15321	0.14327
3994.22457	0.13996
3992.29592	0.13826
3990.36728	0.13912
3988.43863	0.14228
3986.50998	0.14640
3984.58134	0.14976
3982.65269	0.15121
3980.72405	0.15063
3978.79540	0.14875
3976.86676	0.14662
3974.93811	0.14513
3973.00947	0.14475
3971.08082	0.14548
3969.15218	0.14700
3967.22353	0.14874
3965.29489	0.15005
3963.36624	0.15037
3961.43759	0.14925
3959.50895	0.14645
3957.58030	0.14208
3955.65166	0.13679
3953.72301	0.13175
3951.79437	0.12832
3949.86572	0.12746
3947.93708	0.12931
3946.00843	0.13297
3944.07979	0.13679
3942.15114	0.13910
3940.22250	0.13912
3938.29385	0.13736
3936.36521	0.13521
3934.43656	0.13418
3932.50791	0.13514
3930.57927	0.13791
3928.65062	0.14147
3926.72198	0.14463
3924.79333	0.14669
3922.86469	0.14764
3920.93604	0.14808
3919.00740	0.14883
3917.07875	0.15045
3915.15011	0.15280
3913.22146	0.15520
3911.29282	0.15675
3909.36417	0.15675
3907.43552	0.15491
3905.50688	0.15157
3903.57823	0.14763
3901.64959	0.14403
3899.72094	0.14151
3897.79230	0.14046
3895.86365	0.14101
3893.93501	0.14308
3892.00636	0.14644
3890.07772	0.15067
3888.14907	0.15529
3886.22043	0.15963
3884.29178	0.16281
3882.36313	0.16385
3880.43449	0.16202
3878.50584	0.15710
3876.57720	0.14961
3874.64855	0.14079
3872.71991	0.13236
3870.79126	0.12599
3868.86262	0.12272
3866.93397	0.12257
3865.00533	0.12470
3863.07668	0.12788
3861.14804	0.13100
3859.21939	0.13366
3857.29074	0.13622
3855.36210	0.13944
3853.43345	0.14376
3851.50481	0.14879
3849.57616	0.15332
3847.64752	0.15582
3845.71887	0.15532
3843.79023	0.15202
3841.86158	0.14741
3839.93294	0.14367
3838.00429	0.14269
3836.07565	0.14525
3834.14700	0.15065
3832.21835	0.15709
3830.28971	0.16236
3828.36106	0.16454
3826.43242	0.16264
3824.50377	0.15691
3822.57513	0.14883
3820.64648	0.14063
3818.71784	0.13455
3816.78919	0.13217
3814.86055	0.13388
3812.93190	0.13876
3811.00326	0.14509
3809.07461	0.15111
3807.14597	0.15566
3805.21732	0.15851
3803.28867	0.16008
3801.36003	0.16089
3799.43138	0.16110
3797.50274	0.16062
3795.57409	0.15944
3793.64545	0.15796
3791.71680	0.15692
3789.78816	0.15708
3787.85951	0.15863
3785.93087	0.16087
3784.00222	0.16242
3782.07358	0.16198
3780.14493	0.15914
3778.21628	0.15470
3776.28764	0.15016
3774.35899	0.14713
3772.43035	0.14658
3770.50170	0.14861
3768.57306	0.15251
3766.64441	0.15739
3764.71577	0.16256
3762.78712	0.16756
3760.85848	0.17190
3758.92983	0.17481
3757.00119	0.17524
3755.07254	0.17234
3753.14389	0.16608
3751.21525	0.15758
3749.28660	0.14887
3747.35796	0.14221
3745.42931	0.13922
3743.50067	0.14026
3741.57202	0.14447
3739.64338	0.15028
3737.71473	0.15613
3735.78609	0.16077
3733.85744	0.16341
3731.92880	0.16381
3730.00015	0.16236
3728.07150	0.15999
3726.14286	0.15799
3724.21421	0.15762
3722.28557	0.15962
3720.35692	0.16383
3718.42828	0.16926
3716.49963	0.17439
3714.57099	0.17764
3712.64234	0.17783
3710.71370	0.17446
3708.78505	0.16782
3706.85641	0.15903
3704.92776	0.15000
3702.99911	0.14305
3701.07047	0.14013
3699.14182	0.14209
3697.21318	0.14843
3695.28453	0.15767
3693.35589	0.16796
3691.42724	0.17780
3689.49860	0.18636
3687.56995	0.19346
3685.64131	0.19907
3683.71266	0.20298
3681.78402	0.20480
3679.85537	0.20431
3677.92673	0.20187
3675.99808	0.19868
3674.06943	0.19655
3672.14079	0.19740
3670.21214	0.20257
3668.28350	0.21229
3666.35485	0.22545
3664.42621	0.23986
3662.49756	0.25304
3660.56892	0.26325
3658.64027	0.27026
3656.71163	0.27529
3654.78298	0.28026
3652.85434	0.28688
3650.92569	0.29597
3648.99704	0.30735
3647.06840	0.32022
3645.13975	0.33389
3643.21111	0.34820
3641.28246	0.36319
3639.35382	0.37861
3637.42517	0.39362
3635.49653	0.40710
3633.56788	0.41809
3631.63924	0.42633
3629.71059	0.43249
3627.78195	0.43800
3625.85330	0.44444
3623.92465	0.45300
3621.99601	0.46424
3620.06736	0.47805
3618.13872	0.49384
3616.21007	0.51085
3614.28143	0.52836
3612.35278	0.54575
3610.42414	0.56242
3608.49549	0.57779
3606.56685	0.59153
3604.63820	0.60376
3602.70956	0.61514
3600.78091	0.62665
3598.85226	0.63921
3596.92362	0.65316
3594.99497	0.66790
3593.06633	0.68215
3591.13768	0.69470
3589.20904	0.70498
3587.28039	0.71328
3585.35175	0.72054
3583.42310	0.72800
3581.49446	0.73683
3579.56581	0.74780
3577.63717	0.76127
3575.70852	0.77706
3573.77988	0.79451
3571.85123	0.81260
3569.92258	0.83022
3567.99394	0.84647
3566.06529	0.86102
3564.13665	0.87405
3562.20800	0.88608
3560.27936	0.89762
3558.35071	0.90912
3556.42207	0.92097
3554.49342	0.93358
3552.56478	0.94721
3550.63613	0.96192
3548.70749	0.97755
3546.77884	0.99375
3544.85019	1.01016
3542.92155	1.02650
3540.99290	1.04264
3539.06426	1.05855
3537.13561	1.07406
3535.20697	1.08878
3533.27832	1.10225
3531.34968	1.11422
3529.42103	1.12482
3527.49239	1.13476
3525.56374	1.14529
3523.63510	1.15775
3521.70645	1.17291
3519.77780	1.19040
3517.84916	1.20876
3515.92051	1.22601
3513.99187	1.24054
3512.06322	1.25189
3510.13458	1.26099
3508.20593	1.26944
3506.27729	1.27843
3504.34864	1.28822
3502.42000	1.29836
3500.49135	1.30840
3498.56271	1.31834
3496.63406	1.32864
3494.70541	1.33985
3492.77677	1.35190
3490.84812	1.36380
3488.91948	1.37407
3486.99083	1.38186
3485.06219	1.38755
3483.13354	1.39265
3481.20490	1.39904
3479.27625	1.40831
3477.34761	1.42111
3475.41896	1.43685
3473.49032	1.45386
3471.56167	1.47006
3469.63302	1.48383
3467.70438	1.49442
3465.77573	1.50207
3463.84709	1.50780
3461.91844	1.51295
3459.98980	1.51858
3458.06115	1.52506
3456.13251	1.53234
3454.20386	1.54043
3452.27522	1.54980
3450.34657	1.56123
3448.41793	1.57525
3446.48928	1.59154
3444.56064	1.60879
3442.63199	1.62497
3440.70334	1.63803
3438.77470	1.64658
3436.84605	1.65048
3434.91741	1.65084
3432.98876	1.64955
3431.06012	1.64870
3429.13147	1.65003
3427.20283	1.65470
3425.27418	1.66290
3423.34554	1.67374
3421.41689	1.68555
3419.48825	1.69637
3417.55960	1.70454
3415.63095	1.70916
3413.70231	1.71044
3411.77366	1.70965
3409.84502	1.70851
3407.91637	1.70857
3405.98773	1.71061
3404.05908	1.71468
3402.13044	1.72012
3400.20179	1.72596
3398.27315	1.73122
3396.34450	1.73525
3394.41586	1.73781
3392.48721	1.73912
3390.55856	1.73987
3388.62992	1.74094
3386.70127	1.74304
3384.77263	1.74634
3382.84398	1.75032
3380.91534	1.75399
3378.98669	1.75629
3377.05805	1.75663
3375.12940	1.75514
3373.20076	1.75256
3371.27211	1.74983
3369.34347	1.74766
3367.41482	1.74643
3365.48617	1.74621
3363.55753	1.74687
3361.62888	1.74813
3359.70024	1.74953
3357.77159	1.75052
3355.84295	1.75059
3353.91430	1.74939
3351.98566	1.74684
3350.05701	1.74313
3348.12837	1.73864
3346.19972	1.73391
3344.27108	1.72957
3342.34243	1.72639
3340.41378	1.72516
3338.48514	1.72647
3336.55649	1.73022
3334.62785	1.73537
3332.69920	1.74019
3330.77056	1.74300
3328.84191	1.74281
3326.91327	1.73973
3324.98462	1.73499
3323.05598	1.73051
3321.12733	1.72800
3319.19869	1.72818
3317.27004	1.73063
3315.34140	1.73425
3313.41275	1.73781
3311.48410	1.74038
3309.55546	1.74151
3307.62681	1.74120
3305.69817	1.73972
3303.76952	1.73752
3301.84088	1.73526
3299.91223	1.73374
3297.98359	1.73369
3296.05494	1.73522
3294.12630	1.73765
3292.19765	1.73980
3290.26901	1.74050
3288.34036	1.73911
3286.41171	1.73555
3284.48307	1.73026
3282.55442	1.72392
3280.62578	1.71726
3278.69713	1.71108
3276.76849	1.70631
3274.83984	1.70362
3272.91120	1.70275
3270.98255	1.70225
3269.05391	1.70005
3267.12526	1.69444
3265.19662	1.68497
3263.26797	1.67288
3261.33932	1.66055
3259.41068	1.65026
3257.48203	1.64288
3255.55339	1.63761
3253.62474	1.63269
3251.69610	1.62662
3249.76745	1.61886
3247.83881	1.61011
3245.91016	1.60165
3243.98152	1.59457
3242.05287	1.58901
3240.12423	1.58427
3238.19558	1.57935
3236.26693	1.57348
3234.33829	1.56645
3232.40964	1.55842
3230.48100	1.54967
3228.55235	1.54032
3226.62371	1.53036
3224.69506	1.51990
3222.76642	1.50931
3220.83777	1.49921
3218.90913	1.49008
3216.98048	1.48202
3215.05184	1.47464
3213.12319	1.46730
3211.19455	1.45944
3209.26590	1.45096
3207.33725	1.44231
3205.40861	1.43426
3203.47996	1.42738
3201.55132	1.42176
3199.62267	1.41700
3197.69403	1.41244
3195.76538	1.40734
3193.83674	1.40116
3191.90809	1.39373
3189.97945	1.38523
3188.05080	1.37593
3186.12216	1.36620
3184.19351	1.35649
3182.26486	1.34747
3180.33622	1.33979
3178.40757	1.33390
3176.47893	1.32981
3174.55028	1.32685
3172.62164	1.32371
3170.69299	1.31877
3168.76435	1.31073
3166.83570	1.29921
3164.90706	1.28502
3162.97841	1.26986
3161.04977	1.25574
3159.12112	1.24421
3157.19247	1.23582
3155.26383	1.23001
3153.33518	1.22554
3151.40654	1.22117
3149.47789	1.21623
3147.54925	1.21071
3145.62060	1.20500
3143.69196	1.19951
3141.76331	1.19425
3139.83467	1.18877
3137.90602	1.18238
3135.97738	1.17460
3134.04873	1.16554
3132.12008	1.15588
3130.19144	1.14654
3128.26279	1.13836
3126.33415	1.13181
3124.40550	1.12686
3122.47686	1.12313
3120.54821	1.12026
3118.61957	1.11806
3116.69092	1.11638
3114.76228	1.11479
3112.83363	1.11253
3110.90499	1.10870
3108.97634	1.10267
3107.04769	1.09454
3105.11905	1.08536
3103.19040	1.07683
3101.26176	1.07051
3099.33311	1.06707
3097.40447	1.06594
3095.47582	1.06569
3093.54718	1.06474
3091.61853	1.06218
3089.68989	1.05809
3087.76124	1.05323
3085.83260	1.04837
3083.90395	1.04375
3081.97531	1.03897
3080.04666	1.03346
3078.11801	1.02706
3076.18937	1.02027
3074.26072	1.01393
3072.33208	1.00849
3070.40343	1.00364
3068.47479	0.99841
3066.54614	0.99176
3064.61750	0.98321
3062.68885	0.97331
3060.76021	0.96347
3058.83156	0.95528
3056.90292	0.94971
3054.97427	0.94664
3053.04562	0.94516
3051.11698	0.94398
3049.18833	0.94201
3047.25969	0.93872
3045.33104	0.93414
3043.40240	0.92866
3041.47375	0.92256
3039.54511	0.91585
3037.61646	0.90843
3035.68782	0.90045
3033.75917	0.89248
3031.83053	0.88533
3029.90188	0.87980
3027.97323	0.87633
3026.04459	0.87486
3024.11594	0.87479
3022.18730	0.87535
3020.25865	0.87583
3018.33001	0.87564
3016.40136	0.87423
3014.47272	0.87117
3012.54407	0.86640
3010.61543	0.86036
3008.68678	0.85383
3006.75814	0.84773
3004.82949	0.84282
3002.90084	0.83953
3000.97220	0.83788
2999.04355	0.83782
2997.11491	0.83941
2995.18626	0.84268
2993.25762	0.84724
2991.32897	0.85220
2989.40033	0.85656
2987.47168	0.85961
2985.54304	0.86122
2983.61439	0.86192
2981.68575	0.86271
2979.75710	0.86455
2977.82845	0.86786
2975.89981	0.87263
2973.97116	0.87887
2972.04252	0.88678
2970.11387	0.89636
2968.18523	0.90705
2966.25658	0.91781
2964.32794	0.92718
2962.39929	0.93350
2960.47065	0.93551
2958.54200	0.93308
2956.61336	0.92721
2954.68471	0.91954
2952.75607	0.91189
2950.82742	0.90602
2948.89877	0.90339
2946.97013	0.90501
2945.04148	0.91127
2943.11284	0.92170
2941.18419	0.93498
2939.25555	0.94942
2937.32690	0.96347
2935.39826	0.97603
2933.46961	0.98686
2931.54097	0.99671
2929.61232	1.00641
2927.68368	1.01562
2925.75503	1.02274
2923.82638	1.02557
2921.89774	1.02196
2919.96909	1.01057
2918.04045	0.99183
2916.11180	0.96814
2914.18316	0.94282
2912.25451	0.91860
2910.32587	0.89705
2908.39722	0.87867
2906.46858	0.86306
2904.53993	0.84938
2902.61129	0.83712
2900.68264	0.82639
2898.75399	0.81742
2896.82535	0.80987
2894.89670	0.80294
2892.96806	0.79611
2891.03941	0.78942
2889.11077	0.78323
2887.18212	0.77803
2885.25348	0.77419
2883.32483	0.77159
2881.39619	0.76944
2879.46754	0.76675
2877.53890	0.76316
2875.61025	0.75905
2873.68160	0.75516
2871.75296	0.75210
2869.82431	0.75020
2867.89567	0.74950
2865.96702	0.74989
2864.03838	0.75135
2862.10973	0.75422
2860.18109	0.75889
2858.25244	0.76542
2856.32380	0.77292
2854.39515	0.77944
2852.46651	0.78238
2850.53786	0.77957
2848.60922	0.77008
2846.68057	0.75463
2844.75192	0.73537
2842.82328	0.71529
2840.89463	0.69718
2838.96599	0.68254
2837.03734	0.67130
2835.10870	0.66267
2833.18005	0.65574
2831.25141	0.64956
2829.32276	0.64337
2827.39412	0.63711
2825.46547	0.63137
2823.53683	0.62642
2821.60818	0.62206
2819.67953	0.61819
2817.75089	0.61493
2815.82224	0.61215
2813.89360	0.60953
2811.96495	0.60713
2810.03631	0.60515
2808.10766	0.60357
2806.17902	0.60228
2804.25037	0.60124
2802.32173	0.60015
2800.39308	0.59822
2798.46444	0.59474
2796.53579	0.58934
2794.60714	0.58231
2792.67850	0.57485
2790.74985	0.56888
2788.82121	0.56581
2786.89256	0.56571
2784.96392	0.56744
2783.03527	0.56936
2781.10663	0.56989
2779.17798	0.56812
2777.24934	0.56434
2775.32069	0.55965
2773.39205	0.55512
2771.46340	0.55148
2769.53475	0.54912
2767.60611	0.54789
2765.67746	0.54709
2763.74882	0.54591
2761.82017	0.54399
2759.89153	0.54155
2757.96288	0.53936
2756.03424	0.53838
2754.10559	0.53893
2752.17695	0.54015
2750.24830	0.54053
2748.31966	0.53895
2746.39101	0.53537
2744.46236	0.53092
2742.53372	0.52736
2740.60507	0.52620
2738.67643	0.52756
2736.74778	0.53025
2734.81914	0.53262
2732.89049	0.53353
2730.96185	0.53270
2729.03320	0.53058
2727.10456	0.52789
2725.17591	0.52532
2723.24727	0.52320
2721.31862	0.52148
2719.38998	0.51982
2717.46133	0.51807
2715.53268	0.51644
2713.60404	0.51524
2711.67539	0.51459
2709.74675	0.51444
2707.81810	0.51466
2705.88946	0.51486
2703.96081	0.51439
2702.03217	0.51281
2700.10352	0.51019
2698.17488	0.50689
2696.24623	0.50325
2694.31759	0.49966
2692.38894	0.49670
2690.46029	0.49487
2688.53165	0.49408
2686.60300	0.49379
2684.67436	0.49334
2682.74571	0.49213
2680.81707	0.48967
2678.88842	0.48606
2676.95978	0.48205
2675.03113	0.47857
2673.10249	0.47622
2671.17384	0.47507
2669.24520	0.47484
2667.31655	0.47508
2665.38790	0.47531
2663.45926	0.47535
2661.53061	0.47521
2659.60197	0.47495
2657.67332	0.47447
2655.74468	0.47359
2653.81603	0.47200
2651.88739	0.46939
2649.95874	0.46578
2648.03010	0.46170
2646.10145	0.45792
2644.17281	0.45508
2642.24416	0.45371
2640.31551	0.45414
2638.38687	0.45598
2636.45822	0.45799
2634.52958	0.45890
2632.60093	0.45797
2630.67229	0.45494
2628.74364	0.45032
2626.81500	0.44552
2624.88635	0.44215
2622.95771	0.44080
2621.02906	0.44097
2619.10042	0.44199
2617.17177	0.44343
2615.24312	0.44487
2613.31448	0.44583
2611.38583	0.44581
2609.45719	0.44414
2607.52854	0.43999
2605.59990	0.43321
2603.67125	0.42507
2601.74261	0.41803
2599.81396	0.41456
2597.88532	0.41593
2595.95667	0.42171
2594.02803	0.43003
2592.09938	0.43857
2590.17074	0.44550
2588.24209	0.44970
2586.31344	0.45061
2584.38480	0.44831
2582.45615	0.44347
2580.52751	0.43698
2578.59886	0.43000
2576.67022	0.42392
2574.74157	0.41970
2572.81293	0.41701
2570.88428	0.41435
2568.95564	0.41047
2567.02699	0.40551
2565.09835	0.40086
2563.16970	0.39832
2561.24105	0.39921
2559.31241	0.40357
2557.38376	0.40992
2555.45512	0.41612
2553.52647	0.42070
2551.59783	0.42341
2549.66918	0.42436
2547.74054	0.42356
2545.81189	0.42145
2543.88325	0.41898
2541.95460	0.41683
2540.02596	0.41530
2538.09731	0.41477
2536.16866	0.41533
2534.24002	0.41587
2532.31137	0.41468
2530.38273	0.41106
2528.45408	0.40557
2526.52544	0.39911
2524.59679	0.39291
2522.66815	0.38853
2520.73950	0.38716
2518.81086	0.38904
2516.88221	0.39345
2514.95357	0.39883
2513.02492	0.40298
2511.09627	0.40397
2509.16763	0.40100
2507.23898	0.39459
2505.31034	0.38675
2503.38169	0.38070
2501.45305	0.37930
2499.52440	0.38332
2497.59576	0.39129
2495.66711	0.40057
2493.73847	0.40849
2491.80982	0.41345
2489.88118	0.41558
2487.95253	0.41618
2486.02389	0.41623
2484.09524	0.41574
2482.16659	0.41414
2480.23795	0.41099
2478.30930	0.40631
2476.38066	0.40079
2474.45201	0.39578
2472.52337	0.39257
2470.59472	0.39152
2468.66608	0.39183
2466.73743	0.39233
2464.80879	0.39240
2462.88014	0.39195
2460.95150	0.39141
2459.02285	0.39180
2457.09420	0.39446
2455.16556	0.39998
2453.23691	0.40749
2451.30827	0.41505
2449.37962	0.42082
2447.45098	0.42394
2445.52233	0.42463
2443.59369	0.42383
2441.66504	0.42263
2439.73640	0.42194
2437.80775	0.42183
2435.87911	0.42147
2433.95046	0.41999
2432.02181	0.41753
2430.09317	0.41481
2428.16452	0.41219
2426.23588	0.40957
2424.30723	0.40713
2422.37859	0.40529
2420.44994	0.40425
2418.52130	0.40425
2416.59265	0.40574
2414.66401	0.40876
2412.73536	0.41277
2410.80672	0.41703
2408.87807	0.42096
2406.94942	0.42411
2405.02078	0.42611
2403.09213	0.42692
2401.16349	0.42674
2399.23484	0.42587
2397.30620	0.42477
2395.37755	0.42389
2393.44891	0.42351
2391.52026	0.42369
2389.59162	0.42443
2387.66297	0.42590
2385.73433	0.42833
2383.80568	0.43188
2381.87703	0.43653
2379.94839	0.44197
2378.01974	0.44718
2376.09110	0.45027
2374.16245	0.44912
2372.23381	0.44248
2370.30516	0.43065
2368.37652	0.41573
2366.44787	0.40117
2364.51923	0.39072
2362.59058	0.38670
2360.66194	0.38889
2358.73329	0.39534
2356.80465	0.40394
2354.87600	0.41350
2352.94735	0.42386
2351.01871	0.43550
2349.09006	0.44859
2347.16142	0.46203
2345.23277	0.47340
2343.30413	0.48042
2341.37548	0.48227
2339.44684	0.47972
2337.51819	0.47437
2335.58955	0.46786
2333.66090	0.46117
2331.73226	0.45466
2329.80361	0.44853
2327.87496	0.44348
2325.94632	0.44032
2324.01767	0.43924
2322.08903	0.43936
2320.16038	0.43902
2318.23174	0.43662
2316.30309	0.43141
2314.37445	0.42390
2312.44580	0.41562
2310.51716	0.40851
2308.58851	0.40396
2306.65987	0.40245
2304.73122	0.40360
2302.80257	0.40640
2300.87393	0.40941
2298.94528	0.41115
2297.01664	0.41069
2295.08799	0.40794
2293.15935	0.40338
2291.23070	0.39765
2289.30206	0.39125
2287.37341	0.38464
2285.44477	0.37860
2283.51612	0.37441
2281.58748	0.37355
2279.65883	0.37698
2277.73018	0.38436
2275.80154	0.39390
2273.87289	0.40296
2271.94425	0.40928
2270.01560	0.41190
2268.08696	0.41118
2266.15831	0.40789
2264.22967	0.40231
2262.30102	0.39403
2260.37238	0.38271
2258.44373	0.36930
2256.51509	0.35638
2254.58644	0.34692
2252.65779	0.34273
2250.72915	0.34370
2248.80050	0.34758
2246.87186	0.35072
2244.94321	0.35056
2243.01457	0.34840
2241.08592	0.34802
2239.15728	0.35121
2237.22863	0.35553
2235.29999	0.35602
2233.37134	0.34734
2231.44270	0.32545
2229.51405	0.29112
2227.58541	0.25262
2225.65676	0.22210
2223.72811	0.20829
2221.79947	0.21286
2219.87082	0.23222
2217.94218	0.25968
2216.01353	0.28553
2214.08489	0.30019
2212.15624	0.30088
2210.22760	0.29364
2208.29895	0.28832
2206.37031	0.29267
2204.44166	0.31064
2202.51302	0.34143
2200.58437	0.37614
2198.65572	0.39977
2196.72708	0.40248
2194.79843	0.38730
2192.86979	0.36546
2190.94114	0.34742
2189.01250	0.33924
2187.08385	0.34242
2185.15521	0.35266
2183.22656	0.36108
2181.29792	0.36138
2179.36927	0.35478
2177.44063	0.34600
2175.51198	0.33671
2173.58333	0.32527
2171.65469	0.31138
2169.72604	0.29608
2167.79740	0.27729
2165.86875	0.25040
2163.94011	0.21369
2162.01146	0.17061
2160.08282	0.12783
2158.15417	0.09497
2156.22553	0.08407
2154.29688	0.10181
2152.36824	0.14243
2150.43959	0.19166
2148.51094	0.23598
2146.58230	0.26736
2144.65365	0.28352
2142.72501	0.28773
2140.79636	0.28727
2138.86772	0.28844
2136.93907	0.29339
2135.01043	0.30143
2133.08178	0.31036
2131.15314	0.31694
2129.22449	0.31842
2127.29585	0.31494
2125.36720	0.31048
2123.43856	0.31056
2121.50991	0.31861
2119.58126	0.33374
2117.65262	0.35059
2115.72397	0.36198
2113.79533	0.36327
2111.86668	0.35510
2109.93804	0.34210
2108.00939	0.32974
2106.08075	0.32193
2104.15210	0.32028
2102.22346	0.32367
2100.29481	0.32901
2098.36617	0.33353
2096.43752	0.33598
2094.50887	0.33603
2092.58023	0.33391
2090.65158	0.33090
2088.72294	0.32898
2086.79429	0.32932
2084.86565	0.33151
2082.93700	0.33417
2081.00836	0.33569
2079.07971	0.33451
2077.15107	0.32958
2075.22242	0.32086
2073.29378	0.30922
2071.36513	0.29607
2069.43648	0.28328
2067.50784	0.27328
2065.57919	0.26843
2063.65055	0.26963
2061.72190	0.27531
2059.79326	0.28206
2057.86461	0.28635
2055.93597	0.28653
2054.00732	0.28379
2052.07868	0.28155
2050.15003	0.28359
2048.22139	0.29177
2046.29274	0.30473
2044.36409	0.31860
2042.43545	0.32912
2040.50680	0.33361
2038.57816	0.33171
2036.64951	0.32490
2034.72087	0.31565
2032.79222	0.30659
2030.86358	0.29963
2028.93493	0.29538
2027.00629	0.29307
2025.07764	0.29100
2023.14900	0.28678
2021.22035	0.27734
2019.29170	0.25971
2017.36306	0.23259
2015.43441	0.19763
2013.50577	0.15975
2011.57712	0.12662
2009.64848	0.10774
2007.71983	0.11118
2005.79119	0.13847
2003.86254	0.18393
2001.93390	0.23659
2000.00525	0.28352
1998.07661	0.31377
1996.14796	0.32250
1994.21932	0.31287
1992.29067	0.29400
1990.36202	0.27690
1988.43338	0.27076
1986.50473	0.27983
1984.57609	0.30077
1982.64744	0.32337
1980.71880	0.33567
1978.79015	0.33049
1976.86151	0.30893
1974.93286	0.28006
1973.00422	0.25709
1971.07557	0.25116
1969.14693	0.26545
1967.21828	0.29409
1965.28963	0.32674
1963.36099	0.35416
1961.43234	0.37105
1959.50370	0.37643
1957.57505	0.37268
1955.64641	0.36334
1953.71776	0.35131
1951.78912	0.33903
1949.86047	0.32942
1947.93183	0.32512
1946.00318	0.32668
1944.07454	0.33209
1942.14589	0.33812
1940.21724	0.34181
1938.28860	0.34145
1936.35995	0.33751
1934.43131	0.33253
1932.50266	0.32968
1930.57402	0.33095
1928.64537	0.33624
1926.71673	0.34372
1924.78808	0.35038
1922.85944	0.35299
1920.93079	0.34938
1919.00215	0.33949
1917.07350	0.32549
1915.14485	0.31079
1913.21621	0.29887
1911.28756	0.29227
1909.35892	0.29201
1907.43027	0.29744
1905.50163	0.30663
1903.57298	0.31709
1901.64434	0.32653
1899.71569	0.33335
1897.78705	0.33705
1895.85840	0.33816
1893.92976	0.33797
1892.00111	0.33786
1890.07246	0.33863
1888.14382	0.34019
1886.21517	0.34177
1884.28653	0.34244
1882.35788	0.34161
1880.42924	0.33942
1878.50059	0.33686
1876.57195	0.33546
1874.64330	0.33647
1872.71466	0.34013
1870.78601	0.34552
1868.85737	0.35089
1866.92872	0.35436
1865.00008	0.35467
1863.07143	0.35168
1861.14278	0.34647
1859.21414	0.34073
1857.28549	0.33598
1855.35685	0.33304
1853.42820	0.33192
1851.49956	0.33198
1849.57091	0.33227
1847.64227	0.33202
1845.71362	0.33101
1843.78498	0.32960
1841.85633	0.32847
1839.92769	0.32820
1837.99904	0.32899
1836.07039	0.33062
1834.14175	0.33265
1832.21310	0.33468
1830.28446	0.33650
1828.35581	0.33802
1826.42717	0.33909
1824.49852	0.33928
1822.56988	0.33807
1820.64123	0.33536
1818.71259	0.33189
1816.78394	0.32908
1814.85530	0.32842
1812.92665	0.33070
1810.99800	0.33554
1809.06936	0.34140
1807.14071	0.34621
1805.21207	0.34828
1803.28342	0.34702
1801.35478	0.34304
1799.42613	0.33776
1797.49749	0.33283
1795.56884	0.32965
1793.64020	0.32915
1791.71155	0.33172
1789.78291	0.33725
1787.85426	0.34509
1785.92561	0.35398
1783.99697	0.36223
1782.06832	0.36813
1780.13968	0.37049
1778.21103	0.36915
1776.28239	0.36522
1774.35374	0.36066
1772.42510	0.35756
1770.49645	0.35736
1768.56781	0.36054
1766.63916	0.36664
1764.71052	0.37452
1762.78187	0.38289
1760.85322	0.39067
1758.92458	0.39720
1756.99593	0.40230
1755.06729	0.40643
1753.13864	0.41050
1751.21000	0.41559
1749.28135	0.42239
1747.35271	0.43099
1745.42406	0.44082
1743.49542	0.45085
1741.56677	0.46018
1739.63813	0.46850
1737.70948	0.47616
1735.78084	0.48396
1733.85219	0.49264
1731.92354	0.50244
1729.99490	0.51284
1728.06625	0.52272
1726.13761	0.53089
1724.20896	0.53668
1722.28032	0.54029
1720.35167	0.54282
1718.42303	0.54590
1716.49438	0.55106
1714.56574	0.55899
1712.63709	0.56935
1710.70845	0.58108
1708.77980	0.59300
1706.85115	0.60455
1704.92251	0.61609
1702.99386	0.62890
1701.06522	0.64453
1699.13657	0.66401
1697.20793	0.68725
1695.27928	0.71312
1693.35064	0.74001
1691.42199	0.76654
1689.49335	0.79213
1687.56470	0.81716
1685.63606	0.84250
1683.70741	0.86901
1681.77876	0.89707
1679.85012	0.92648
1677.92147	0.95672
1675.99283	0.98730
1674.06418	1.01803
1672.13554	1.04907
1670.20689	1.08073
1668.27825	1.11315
1666.34960	1.14597
1664.42096	1.17807
1662.49231	1.20783
1660.56367	1.23365
1658.63502	1.25461
1656.70637	1.27088
1654.77773	1.28375
1652.84908	1.29502
1650.92044	1.30616
1648.99179	1.31754
1647.06315	1.32847
1645.13450	1.33771
1643.20586	1.34417
1641.27721	1.34747
1639.34857	1.34801
1637.41992	1.34664
1635.49128	1.34389
1633.56263	1.33952
1631.63399	1.33261
1629.70534	1.32201
1627.77669	1.30693
1625.84805	1.28743
1623.91940	1.26455
1621.99076	1.24006
1620.06211	1.21594
1618.13347	1.19380
1616.20482	1.17461
1614.27618	1.15855
1612.34753	1.14523
1610.41889	1.13392
1608.49024	1.12394
1606.56160	1.11475
1604.63295	1.10599
1602.70430	1.09743
1600.77566	1.08883
1598.84701	1.07996
1596.91837	1.07060
1594.98972	1.06066
1593.06108	1.05031
1591.13243	1.03988
1589.20379	1.02969
1587.27514	1.01999
1585.34650	1.01091
1583.41785	1.00247
1581.48921	0.99468
1579.56056	0.98755
1577.63191	0.98111
1575.70327	0.97546
1573.77462	0.97053
1571.84598	0.96609
1569.91733	0.96179
1567.98869	0.95733
1566.06004	0.95254
1564.13140	0.94743
1562.20275	0.94228
1560.27411	0.93755
1558.34546	0.93371
1556.41682	0.93082
1554.48817	0.92839
1552.55952	0.92538
1550.63088	0.92047
1548.70223	0.91248
1546.77359	0.90090
1544.84494	0.88620
1542.91630	0.86967
1540.98765	0.85297
1539.05901	0.83748
1537.13036	0.82381
1535.20172	0.81175
1533.27307	0.80053
1531.34443	0.78944
1529.41578	0.77820
1527.48713	0.76701
1525.55849	0.75637
1523.62984	0.74665
1521.70120	0.73770
1519.77255	0.72869
1517.84391	0.71837
1515.91526	0.70558
1513.98662	0.68977
1512.05797	0.67130
1510.12933	0.65129
1508.20068	0.63129
1506.27204	0.61268
1504.34339	0.59619
1502.41475	0.58173
1500.48610	0.56871
1498.55745	0.55657
1496.62881	0.54511
1494.70016	0.53463
1492.77152	0.52567
1490.84287	0.51878
1488.91423	0.51420
1486.98558	0.51171
1485.05694	0.51090
1483.12829	0.51148
1481.19965	0.51369
1479.27100	0.51822
1477.34236	0.52591
1475.41371	0.53725
1473.48506	0.55189
1471.55642	0.56847
1469.62777	0.58493
1467.69913	0.59921
1465.77048	0.61009
1463.84184	0.61750
1461.91319	0.62234
1459.98455	0.62579
1458.05590	0.62870
1456.12726	0.63116
1454.19861	0.63255
1452.26997	0.63200
1450.34132	0.62897
1448.41267	0.62363
1446.48403	0.61676
1444.55538	0.60952
1442.62674	0.60313
1440.69809	0.59860
1438.76945	0.59655
1436.84080	0.59722
1434.91216	0.60058
1432.98351	0.60642
1431.05487	0.61439
1429.12622	0.62405
1427.19758	0.63492
1425.26893	0.64653
1423.34028	0.65847
1421.41164	0.67052
1419.48299	0.68260
1417.55435	0.69469
1415.62570	0.70663
1413.69706	0.71804
1411.76841	0.72829
1409.83977	0.73663
1407.91112	0.74256
1405.98248	0.74600
1404.05383	0.74740
1402.12519	0.74754
1400.19654	0.74709
1398.26789	0.74641
1396.33925	0.74548
1394.41060	0.74402
1392.48196	0.74180
1390.55331	0.73886
1388.62467	0.73559
1386.69602	0.73247
1384.76738	0.72975
1382.83873	0.72728
1380.91009	0.72450
1378.98144	0.72063
1377.05280	0.71495
1375.12415	0.70706
1373.19551	0.69707
1371.26686	0.68558
1369.33821	0.67341
1367.40957	0.66140
1365.48092	0.65014
1363.55228	0.63988
1361.62363	0.63056
1359.69499	0.62199
1357.76634	0.61400
1355.83770	0.60657
1353.90905	0.59973
1351.98041	0.59352
1350.05176	0.58795
1348.12312	0.58299
1346.19447	0.57865
1344.26582	0.57498
1342.33718	0.57207
1340.40853	0.56998
1338.47989	0.56865
1336.55124	0.56792
1334.62260	0.56754
1332.69395	0.56732
1330.76531	0.56708
1328.83666	0.56668
1326.90802	0.56606
1324.97937	0.56519
1323.05073	0.56410
1321.12208	0.56278
1319.19343	0.56120
1317.26479	0.55935
1315.33614	0.55719
1313.40750	0.55469
1311.47885	0.55191
1309.55021	0.54910
1307.62156	0.54661
1305.69292	0.54489
1303.76427	0.54431
1301.83563	0.54513
1299.90698	0.54731
1297.97834	0.55049
1296.04969	0.55407
1294.12104	0.55748
1292.19240	0.56045
1290.26375	0.56298
1288.33511	0.56527
1286.40646	0.56750
1284.47782	0.56966
1282.54917	0.57156
1280.62053	0.57304
1278.69188	0.57433
1276.76324	0.57615
1274.83459	0.57947
1272.90595	0.58497
1270.97730	0.59270
1269.04866	0.60194
1267.12001	0.61143
1265.19136	0.61984
1263.26272	0.62627
1261.33407	0.63047
1259.40543	0.63268
1257.47678	0.63348
1255.54814	0.63358
1253.61949	0.63367
1251.69085	0.63432
1249.76220	0.63593
1247.83356	0.63867
1245.90491	0.64246
1243.97627	0.64694
1242.04762	0.65161
1240.11897	0.65600
1238.19033	0.65972
1236.26168	0.66255
1234.33304	0.66443
1232.40439	0.66554
1230.47575	0.66626
1228.54710	0.66705
1226.61846	0.66827
1224.68981	0.67004
1222.76117	0.67214
1220.83252	0.67408
1218.90388	0.67537
1216.97523	0.67568
1215.04658	0.67503
1213.11794	0.67374
1211.18929	0.67231
1209.26065	0.67126
1207.33200	0.67104
1205.40336	0.67196
1203.47471	0.67422
1201.54607	0.67801
1199.61742	0.68342
1197.68878	0.69042
1195.76013	0.69875
1193.83149	0.70796
1191.90284	0.71751
1189.97419	0.72721
1188.04555	0.73768
1186.11690	0.75008
1184.18826	0.76554
1182.25961	0.78478
1180.33097	0.80774
1178.40232	0.83340
1176.47368	0.86007
1174.54503	0.88648
1172.61639	0.91236
1170.68774	0.93800
1168.75910	0.96382
1166.83045	0.99012
1164.90180	1.01693
1162.97316	1.04370
1161.04451	1.06965
1159.11587	1.09437
1157.18722	1.11803
1155.25858	1.14103
1153.32993	1.16379
1151.40129	1.18686
1149.47264	1.21088
1147.54400	1.23635
1145.61535	1.26341
1143.68671	1.29191
1141.75806	1.32157
1139.82942	1.35203
1137.90077	1.38319
1135.97212	1.41526
1134.04348	1.44852
1132.11483	1.48298
1130.18619	1.51814
1128.25754	1.55297
1126.32890	1.58641
1124.40025	1.61782
1122.47161	1.64693
1120.54296	1.67342
1118.61432	1.69711
1116.68567	1.71835
1114.75703	1.73783
1112.82838	1.75613
1110.89973	1.77379
1108.97109	1.79152
1107.04244	1.80964
1105.11380	1.82772
1103.18515	1.84527
1101.25651	1.86220
1099.32786	1.87853
1097.39922	1.89424
1095.47057	1.90965
1093.54193	1.92558
1091.61328	1.94262
1089.68464	1.96023
1087.75599	1.97673
1085.82734	1.98995
1083.89870	1.99799
1081.97005	2.00000
1080.04141	1.99634
1078.11276	1.98835
1076.18412	1.97745
1074.25547	1.96432
1072.32683	1.94891
1070.39818	1.93135
1068.46954	1.91236
1066.54089	1.89298
1064.61225	1.87386
1062.68360	1.85503
1060.75495	1.83586
1058.82631	1.81533
1056.89766	1.79264
1054.96902	1.76790
1053.04037	1.74214
1051.11173	1.71683
1049.18308	1.69321
1047.25444	1.67193
1045.32579	1.65298
1043.39715	1.63574
1041.46850	1.61925
1039.53986	1.60253
1037.61121	1.58486
1035.68256	1.56576
1033.75392	1.54483
1031.82527	1.52181
1029.89663	1.49688
1027.96798	1.47083
1026.03934	1.44470
1024.11069	1.41945
1022.18205	1.39577
1020.25340	1.37377
1018.32476	1.35274
1016.39611	1.33154
1014.46747	1.30929
1012.53882	1.28602
1010.61018	1.26267
1008.68153	1.24054
1006.75288	1.22070
1004.82424	1.20366
1002.89559	1.18933
1000.96695	1.17723
999.03830	1.16699
997.10966	1.15881
995.18101	1.15319
993.25237	1.14990
991.32372	1.14737
989.39508	1.14315
987.46643	1.13489
985.53779	1.12124
983.60914	1.10202
981.68049	1.07812
979.75185	1.05088
977.82320	1.02157
975.89456	0.99134
973.96591	0.96134
972.03727	0.93256
970.10862	0.90579
968.17998	0.88147
966.25133	0.85918
964.32269	0.83772
962.39404	0.81584
960.46540	0.79304
958.53675	0.76950
956.60810	0.74583
954.67946	0.72340
952.75081	0.70396
950.82217	0.68844
948.89352	0.67635
946.96488	0.66636
945.03623	0.65696
943.10759	0.64695
941.17894	0.63604
939.25030	0.62512
937.32165	0.61554
935.39301	0.60818
933.46436	0.60315
931.53571	0.60006
929.60707	0.59809
927.67842	0.59625
925.74978	0.59381
923.82113	0.59038
921.89249	0.58595
919.96384	0.58113
918.03520	0.57679
916.10655	0.57352
914.17791	0.57141
912.24926	0.57010
910.32062	0.56867
908.39197	0.56575
906.46333	0.56048
904.53468	0.55333
902.60603	0.54577
900.67739	0.53956
898.74874	0.53629
896.82010	0.53680
894.89145	0.54029
892.96281	0.54458
891.03416	0.54756
889.10552	0.54823
887.17687	0.54676
885.24823	0.54409
883.31958	0.54133
881.39094	0.53914
879.46229	0.53747
877.53364	0.53589
875.60500	0.53405
873.67635	0.53172
871.74771	0.52862
869.81906	0.52455
867.89042	0.51931
865.96177	0.51298
864.03313	0.50625
862.10448	0.50035
860.17584	0.49671
858.24719	0.49645
856.31855	0.49915
854.38990	0.50259
852.46125	0.50411
850.53261	0.50225
848.60396	0.49694
846.67532	0.48932
844.74667	0.48173
842.81803	0.47675
840.88938	0.47518
838.96074	0.47545
837.03209	0.47545
835.10345	0.47373
833.17480	0.46930
831.24616	0.46174
829.31751	0.45193
827.38886	0.44167
825.46022	0.43271
823.53157	0.42632
821.60293	0.42336
819.67428	0.42391
817.74564	0.42708
815.81699	0.43169
813.88835	0.43721
811.95970	0.44381
810.03106	0.45242
808.10241	0.46432
806.17377	0.47991
804.24512	0.49792
802.31647	0.51602
800.38783	0.53177
798.45918	0.54278
796.53054	0.54718
794.60189	0.54491
792.67325	0.53807
790.74460	0.52982
788.81596	0.52369
786.88731	0.52278
784.95867	0.52795
783.03002	0.53638
781.10138	0.54321
779.17273	0.54462
777.24409	0.53970
775.31544	0.53046
773.38679	0.52099
771.45815	0.51535
769.52950	0.51493
767.60086	0.51783
765.67221	0.52083
763.74357	0.52140
761.81492	0.51821
759.88628	0.51097
757.95763	0.50066
756.02899	0.48945
754.10034	0.48024
752.17170	0.47632
750.24305	0.48043
748.31440	0.49266
746.38576	0.50901
744.45711	0.52292
742.52847	0.52868
740.59982	0.52398
738.67118	0.51073
736.74253	0.49465
734.81389	0.48250
732.88524	0.47846
730.95660	0.48263
729.02795	0.49233
727.09931	0.50413
725.17066	0.51474
723.24201	0.52162
721.31337	0.52395
719.38472	0.52238
717.45608	0.51837
715.52743	0.51377
713.59879	0.51047
711.67014	0.50982
709.74150	0.51200
707.81285	0.51615
705.88421	0.52115
703.95556	0.52640
702.02692	0.53232
700.09827	0.53993
698.16962	0.54969
696.24098	0.56076
694.31233	0.57093
692.38369	0.57736
690.45504	0.57768
688.52640	0.57128
686.59775	0.55992
684.66911	0.54712
682.74046	0.53659
680.81182	0.53136
678.88317	0.53320
676.95453	0.54191
675.02588	0.55522
673.09723	0.56941
671.16859	0.58037
669.23994	0.58473
667.31130	0.58103
665.38265	0.57082
663.45401	0.55818
661.52536	0.54732
659.59672	0.54065
657.66807	0.53813
655.73943	0.53790
653.81078	0.53760
651.88214	0.53592
649.95349	0.53350
648.02485	0.53232
646.09620	0.53400
644.16755	0.53877
642.23891	0.54549
640.31026	0.55244
638.38162	0.55826
636.45297	0.56264
634.52433	0.56734
632.59568	0.57624
630.66704	0.59297
628.73839	0.61694
626.80975	0.64064
624.88110	0.65024
622.95246	0.62952
621.02381	0.56600
619.09516	0.45799
617.16652	0.31907
615.23787	0.17623
613.30923	0.06120
611.38058	0.00000
609.45194	0.00530
607.52329	0.07380
605.59465	0.18783
603.66600	0.32108
601.73736	0.44746
599.80871	0.54880
597.88007	0.61749
595.95142	0.65502
594.02277	0.66885
592.09413	0.66896
590.16548	0.66415
588.23684	0.65989
586.30819	0.65864
584.37955	0.66107
582.45090	0.66639
580.52226	0.67269
578.59361	0.67825
576.66497	0.68286
574.73632	0.68809
572.80768	0.69641
570.87903	0.71005
568.95038	0.72971
567.02174	0.75342
565.09309	0.77696
563.16445	0.79601
561.23580	0.80829
559.30716	0.81418
557.37851	0.81605
555.44987	0.81734
553.52122	0.82122
551.59258	0.82935
549.66393	0.84145
547.73529	0.85606
545.80664	0.87148
543.87800	0.88645
541.94935	0.90023
540.02070	0.91245
538.09206	0.92282
536.16341	0.93088
534.23477	0.93619
532.30612	0.93843
530.37748	0.93749
528.44883	0.93328
526.52019	0.92562
524.59154	0.91441
522.66290	0.89973
520.73425	0.88252
518.80561	0.86494
516.87696	0.84979
514.94831	0.83917
513.01967	0.83346
511.09102	0.83109
509.16238	0.82886
507.23373	0.82299
505.30509	0.81098
503.37644	0.79310
501.44780	0.77236
499.51915	0.75317
497.59051	0.73998
495.66186	0.73576
493.73322	0.74073
491.80457	0.75229
489.87592	0.76650
487.94728	0.78018
486.01863	0.79215
484.08999	0.80349
482.16134	0.81663
480.23270	0.83377
478.30405	0.85526
476.37541	0.87904
474.44676	0.90149
472.51812	0.91911
470.58947	0.93005
468.66083	0.93441
466.73218	0.93350
464.80353	0.92858
462.87489	0.91994
460.94624	0.90694
459.01760	0.88883
457.08895	0.86588
455.16031	0.83973
453.23166	0.81267
451.30302	0.78655
449.37437	0.76196
447.44573	0.73818
445.51708	0.71419
443.58844	0.68981
441.65979	0.66622
439.73114	0.64525
437.80250	0.62836
435.87385	0.61574
433.94521	0.60608
432.01656	0.59712
430.08792	0.58692
428.15927	0.57483
426.23063	0.56154
424.30198	0.54857
422.37334	0.53750
420.44469	0.52922
418.51605	0.52345
416.58740	0.51871
414.65876	0.51307
412.73011	0.50502
410.80146	0.49416
408.87282	0.48160
406.94417	0.46966
405.01553	0.46098
403.08688	0.45731
401.15824	0.45860
399.22959	0.46265
397.30095	0.46591
395.37230	0.46499
393.44366	0.45818
391.51501	0.44638
389.58637	0.43274
387.65772	0.42115
385.72907	0.41444
383.80043	0.41339
381.87178	0.41697
379.94314	0.42322
378.01449	0.43033
376.08585	0.43708
374.15720	0.44224
372.22856	0.44361
370.29991	0.43795
368.37127	0.42240
366.44262	0.39616
364.51398	0.36147
362.58533	0.32338
360.65668	0.28839
358.72804	0.26224
356.79939	0.24789
354.87075	0.24509
352.94210	0.25122
351.01346	0.26243
349.08481	0.27460
347.15617	0.28397
345.22752	0.28747
343.29888	0.28284
341.37023	0.26912
339.44159	0.24720
337.51294	0.22021
335.58429	0.19282
333.65565	0.16995
331.72700	0.15528
329.79836	0.14996
327.86971	0.15258
325.94107	0.16019
324.01242	0.16991
322.08378	0.17955
320.15513	0.18751
318.22649	0.19235
316.29784	0.19278
314.36920	0.18803
312.44055	0.17867
310.51190	0.16662
308.58326	0.15407
306.65461	0.14317
304.72597	0.13500
302.79732	0.12975
300.86868	0.12736
298.94003	0.12802
297.01139	0.13189
295.08274	0.13810
293.15410	0.14396
291.22545	0.14584
289.29681	0.14149
287.36816	0.13189
285.43952	0.12127
283.51087	0.11526
281.58222	0.11829
279.65358	0.13164
277.72493	0.15291
275.79629	0.17755
273.86764	0.20140
271.93900	0.22201
270.01035	0.23801
268.08171	0.24759
266.15306	0.24782
264.22442	0.23554
262.29577	0.20925
260.36713	0.17106
258.43848	0.12776
256.50983	0.09013
254.58119	0.06980
252.65254	0.07494
250.72390	0.10672
248.79525	0.15835
246.86661	0.21683
244.93796	0.26701
243.00932	0.29705
241.08067	0.30313
239.15203	0.29079
237.22338	0.27207
235.29474	0.25979
233.36609	0.26172
231.43744	0.27675
229.50880	0.29512
227.58015	0.30311
225.65151	0.29017
223.72286	0.25472
221.79422	0.20545
219.86557	0.15738
217.93693	0.12502
216.00828	0.11658
214.07964	0.13179
212.15099	0.16374
210.22235	0.20314
208.29370	0.24243
206.36505	0.27678
204.43641	0.30260
202.50776	0.31638
200.57912	0.31580
198.65047	0.30192
196.72183	0.27967
194.79318	0.25597
192.86454	0.23665
190.93589	0.22409
189.00725	0.21689
187.07860	0.21160
185.14996	0.20517
183.22131	0.19696
181.29267	0.18930
179.36402	0.18738
177.43537	0.19916
175.50673	0.23399
173.57808	0.29838
171.64944	0.39001
169.72079	0.49487
167.79215	0.59122
165.86350	0.65950
163.93486	0.69241
162.00621	0.70256
160.07757	0.70054
158.14892	0.69853
156.22028	0.70316
154.29163	0.70316
152.36298	0.70316
150.43434	0.70316
148.50569	0.70316
