4497.60101	0.05360
4495.67236	0.05360
4493.74372	0.05360
4491.81507	0.05360
4489.88643	0.05360
4487.95778	0.05094
4486.02914	0.04825
4484.10049	0.04613
4482.17185	0.04502
4480.24320	0.04525
4478.31455	0.04582
4476.38591	0.04626
4474.45726	0.04684
4472.52862	0.04783
4470.59997	0.04875
4468.67133	0.04862
4466.74268	0.04682
4464.81404	0.04374
4462.88539	0.04069
4460.95675	0.03932
4459.02810	0.04083
4457.09946	0.04489
4455.17081	0.04960
4453.24216	0.05294
4451.31352	0.05427
4449.38487	0.05448
4447.45623	0.05477
4445.52758	0.05575
4443.59894	0.05702
4441.67029	0.05727
4439.74165	0.05512
4437.81300	0.05049
4435.88436	0.04470
4433.95571	0.03954
4432.02707	0.03633
4430.09842	0.03574
4428.16978	0.03772
4426.24113	0.04139
4424.31248	0.04530
4422.38384	0.04809
4420.45519	0.04904
4418.52655	0.04830
4416.59790	0.04673
4414.66926	0.04551
4412.74061	0.04568
4410.81197	0.04753
4408.88332	0.05013
4406.95468	0.05172
4405.02603	0.05093
4403.09739	0.04742
4401.16874	0.04187
4399.24009	0.03593
4397.31145	0.03177
4395.38280	0.03100
4393.45416	0.03370
4391.52551	0.03856
4389.59687	0.04352
4387.66822	0.04649
4385.73958	0.04666
4383.81093	0.04556
4381.88229	0.04569
4379.95364	0.04800
4378.02500	0.05121
4376.09635	0.05321
4374.16770	0.05232
4372.23906	0.04806
4370.31041	0.04186
4368.38177	0.03668
4366.45312	0.03489
4364.52448	0.03647
4362.59583	0.03961
4360.66719	0.04247
4358.73854	0.04426
4356.80990	0.04507
4354.88125	0.04531
4352.95261	0.04495
4351.02396	0.04353
4349.09531	0.04084
4347.16667	0.03751
4345.23802	0.03456
4343.30938	0.03281
4341.38073	0.03252
4339.45209	0.03346
4337.52344	0.03492
4335.59480	0.03615
4333.66615	0.03698
4331.73751	0.03771
4329.80886	0.03849
4327.88022	0.03897
4325.95157	0.03877
4324.02292	0.03791
4322.09428	0.03681
4320.16563	0.03596
4318.23699	0.03565
4316.30834	0.03588
4314.37970	0.03665
4312.45105	0.03819
4310.52241	0.04088
4308.59376	0.04485
4306.66512	0.04962
4304.73647	0.05407
4302.80783	0.05670
4300.87918	0.05625
4298.95054	0.05253
4297.02189	0.04682
4295.09324	0.04138
4293.16460	0.03829
4291.23595	0.03842
4289.30731	0.04125
4287.37866	0.04528
4285.45002	0.04843
4283.52137	0.04873
4281.59273	0.04529
4279.66408	0.03869
4277.73544	0.03059
4275.80679	0.02323
4273.87815	0.01902
4271.94950	0.01952
4270.02085	0.02439
4268.09221	0.03157
4266.16356	0.03847
4264.23492	0.04324
4262.30627	0.04550
4260.37763	0.04633
4258.44898	0.04738
4256.52034	0.04977
4254.59169	0.05344
4252.66305	0.05720
4250.73440	0.05946
4248.80576	0.05916
4246.87711	0.05629
4244.94846	0.05140
4243.01982	0.04498
4241.09117	0.03781
4239.16253	0.03121
4237.23388	0.02644
4235.30524	0.02418
4233.37659	0.02463
4231.44795	0.02768
4229.51930	0.03272
4227.59066	0.03885
4225.66201	0.04536
4223.73337	0.05180
4221.80472	0.05744
4219.87607	0.06135
4217.94743	0.06288
4216.01878	0.06183
4214.09014	0.05852
4212.16149	0.05364
4210.23285	0.04796
4208.30420	0.04204
4206.37556	0.03635
4204.44691	0.03149
4202.51827	0.02810
4200.58962	0.02663
4198.66098	0.02730
4196.73233	0.03002
4194.80368	0.03418
4192.87504	0.03875
4190.94639	0.04282
4189.01775	0.04566
4187.08910	0.04687
4185.16046	0.04652
4183.23181	0.04515
4181.30317	0.04342
4179.37452	0.04172
4177.44588	0.04013
4175.51723	0.03865
4173.58859	0.03745
4171.65994	0.03687
4169.73130	0.03730
4167.80265	0.03872
4165.87400	0.04052
4163.94536	0.04182
4162.01671	0.04202
4160.08807	0.04135
4158.15942	0.04062
4156.23078	0.04050
4154.30213	0.04100
4152.37349	0.04160
4150.44484	0.04166
4148.51620	0.04080
4146.58755	0.03910
4144.65891	0.03718
4142.73026	0.03586
4140.80161	0.03550
4138.87297	0.03583
4136.94432	0.03654
4135.01568	0.03780
4133.08703	0.03984
4131.15839	0.04243
4129.22974	0.04504
4127.30110	0.04724
4125.37245	0.04854
4123.44381	0.04811
4121.51516	0.04529
4119.58652	0.04031
4117.65787	0.03415
4115.72922	0.02789
4113.80058	0.02246
4111.87193	0.01878
4109.94329	0.01754
4108.01464	0.01880
4106.08600	0.02201
4104.15735	0.02638
4102.22871	0.03102
4100.30006	0.03495
4098.37142	0.03742
4096.44277	0.03846
4094.51413	0.03884
4092.58548	0.03953
4090.65683	0.04096
4088.72819	0.04280
4086.79954	0.04427
4084.87090	0.04478
4082.94225	0.04442
4081.01361	0.04371
4079.08496	0.04314
4077.15632	0.04298
4075.22767	0.04320
4073.29903	0.04353
4071.37038	0.04393
4069.44174	0.04496
4067.51309	0.04725
4065.58444	0.05074
4063.65580	0.05451
4061.72715	0.05728
4059.79851	0.05794
4057.86986	0.05579
4055.94122	0.05097
4054.01257	0.04450
4052.08393	0.03776
4050.15528	0.03185
4048.22664	0.02733
4046.29799	0.02445
4044.36935	0.02333
4042.44070	0.02391
4040.51206	0.02570
4038.58341	0.02784
4036.65476	0.02947
4034.72612	0.03019
4032.79747	0.03004
4030.86883	0.02945
4028.94018	0.02906
4027.01154	0.02923
4025.08289	0.02959
4023.15425	0.02936
4021.22560	0.02820
4019.29696	0.02659
4017.36831	0.02536
4015.43967	0.02516
4013.51102	0.02612
4011.58237	0.02793
4009.65373	0.03019
4007.72508	0.03260
4005.79644	0.03505
4003.86779	0.03773
4001.93915	0.04086
4000.01050	0.04435
3998.08186	0.04760
3996.15321	0.04963
3994.22457	0.04970
3992.29592	0.04733
3990.36728	0.04256
3988.43863	0.03627
3986.50998	0.03011
3984.58134	0.02572
3982.65269	0.02399
3980.72405	0.02475
3978.79540	0.02696
3976.86676	0.02923
3974.93811	0.03056
3973.00947	0.03079
3971.08082	0.03058
3969.15218	0.03083
3967.22353	0.03220
3965.29489	0.03477
3963.36624	0.03822
3961.43759	0.04210
3959.50895	0.04604
3957.58030	0.04975
3955.65166	0.05301
3953.72301	0.05554
3951.79437	0.05693
3949.86572	0.05693
3947.93708	0.05561
3946.00843	0.05337
3944.07979	0.05075
3942.15114	0.04823
3940.22250	0.04608
3938.29385	0.04424
3936.36521	0.04246
3934.43656	0.04047
3932.50791	0.03825
3930.57927	0.03602
3928.65062	0.03420
3926.72198	0.03322
3924.79333	0.03335
3922.86469	0.03456
3920.93604	0.03658
3919.00740	0.03897
3917.07875	0.04125
3915.15011	0.04301
3913.22146	0.04403
3911.29282	0.04427
3909.36417	0.04396
3907.43552	0.04348
3905.50688	0.04315
3903.57823	0.04301
3901.64959	0.04269
3899.72094	0.04168
3897.79230	0.03972
3895.86365	0.03706
3893.93501	0.03450
3892.00636	0.03297
3890.07772	0.03310
3888.14907	0.03476
3886.22043	0.03713
3884.29178	0.03923
3882.36313	0.04041
3880.43449	0.04063
3878.50584	0.04037
3876.57720	0.04038
3874.64855	0.04120
3872.71991	0.04289
3870.79126	0.04496
3868.86262	0.04663
3866.93397	0.04718
3865.00533	0.04626
3863.07668	0.04408
3861.14804	0.04137
3859.21939	0.03902
3857.29074	0.03769
3855.36210	0.03753
3853.43345	0.03823
3851.50481	0.03929
3849.57616	0.04036
3847.64752	0.04137
3845.71887	0.04246
3843.79023	0.04378
3841.86158	0.04531
3839.93294	0.04682
3838.00429	0.04796
3836.07565	0.04844
3834.14700	0.04818
3832.21835	0.04720
3830.28971	0.04564
3828.36106	0.04367
3826.43242	0.04169
3824.50377	0.04018
3822.57513	0.03960
3820.64648	0.04014
3818.71784	0.04160
3816.78919	0.04343
3814.86055	0.04491
3812.93190	0.04556
3811.00326	0.04526
3809.07461	0.04423
3807.14597	0.04283
3805.21732	0.04131
3803.28867	0.03982
3801.36003	0.03852
3799.43138	0.03773
3797.50274	0.03781
3795.57409	0.03894
3793.64545	0.04090
3791.71680	0.04311
3789.78816	0.04487
3787.85951	0.04574
3785.93087	0.04568
3784.00222	0.04504
3782.07358	0.04436
3780.14493	0.04403
3778.21628	0.04421
3776.28764	0.04476
3774.35899	0.04538
3772.43035	0.04576
3770.50170	0.04564
3768.57306	0.04490
3766.64441	0.04356
3764.71577	0.04188
3762.78712	0.04028
3760.85848	0.03919
3758.92983	0.03897
3757.00119	0.03973
3755.07254	0.04131
3753.14389	0.04329
3751.21525	0.04505
3749.28660	0.04603
3747.35796	0.04598
3745.42931	0.04514
3743.50067	0.04409
3741.57202	0.04349
3739.64338	0.04371
3737.71473	0.04471
3735.78609	0.04595
3733.85744	0.04669
3731.92880	0.04644
3730.00015	0.04525
3728.07150	0.04364
3726.14286	0.04221
3724.21421	0.04144
3722.28557	0.04144
3720.35692	0.04200
3718.42828	0.04261
3716.49963	0.04284
3714.57099	0.04270
3712.64234	0.04270
3710.71370	0.04369
3708.78505	0.04634
3706.85641	0.05084
3704.92776	0.05659
3702.99911	0.06244
3701.07047	0.06719
3699.14182	0.07027
3697.21318	0.07204
3695.28453	0.07346
3693.35589	0.07539
3691.42724	0.07814
3689.49860	0.08137
3687.56995	0.08456
3685.64131	0.08754
3683.71266	0.09077
3681.78402	0.09514
3679.85537	0.10144
3677.92673	0.10970
3675.99808	0.11903
3674.06943	0.12809
3672.14079	0.13579
3670.21214	0.14180
3668.28350	0.14669
3666.35485	0.15161
3664.42621	0.15770
3662.49756	0.16558
3660.56892	0.17526
3658.64027	0.18641
3656.71163	0.19858
3654.78298	0.21124
3652.85434	0.22378
3650.92569	0.23567
3648.99704	0.24664
3647.06840	0.25681
3645.13975	0.26682
3643.21111	0.27771
3641.28246	0.29032
3639.35382	0.30474
3637.42517	0.32029
3635.49653	0.33602
3633.56788	0.35125
3631.63924	0.36588
3629.71059	0.38042
3627.78195	0.39568
3625.85330	0.41229
3623.92465	0.43030
3621.99601	0.44906
3620.06736	0.46756
3618.13872	0.48473
3616.21007	0.49983
3614.28143	0.51272
3612.35278	0.52395
3610.42414	0.53463
3608.49549	0.54598
3606.56685	0.55900
3604.63820	0.57410
3602.70956	0.59107
3600.78091	0.60915
3598.85226	0.62729
3596.92362	0.64460
3594.99497	0.66062
3593.06633	0.67549
3591.13768	0.68989
3589.20904	0.70483
3587.28039	0.72129
3585.35175	0.73977
3583.42310	0.76005
3581.49446	0.78123
3579.56581	0.80212
3577.63717	0.82169
3575.70852	0.83947
3573.77988	0.85564
3571.85123	0.87094
3569.92258	0.88618
3567.99394	0.90190
3566.06529	0.91819
3564.13665	0.93489
3562.20800	0.95188
3560.27936	0.96924
3558.35071	0.98725
3556.42207	1.00611
3554.49342	1.02576
3552.56478	1.04575
3550.63613	1.06544
3548.70749	1.08418
3546.77884	1.10149
3544.85019	1.11729
3542.92155	1.13195
3540.99290	1.14613
3539.06426	1.16048
3537.13561	1.17555
3535.20697	1.19164
3533.27832	1.20865
3531.34968	1.22616
3529.42103	1.24364
3527.49239	1.26078
3525.56374	1.27749
3523.63510	1.29384
3521.70645	1.31010
3519.77780	1.32657
3517.84916	1.34347
3515.92051	1.36086
3513.99187	1.37859
3512.06322	1.39639
3510.13458	1.41384
3508.20593	1.43058
3506.27729	1.44650
3504.34864	1.46183
3502.42000	1.47695
3500.49135	1.49221
3498.56271	1.50773
3496.63406	1.52324
3494.70541	1.53826
3492.77677	1.55229
3490.84812	1.56512
3488.91948	1.57697
3486.99083	1.58845
3485.06219	1.60035
3483.13354	1.61334
3481.20490	1.62768
3479.27625	1.64311
3477.34761	1.65899
3475.41896	1.67454
3473.49032	1.68930
3471.56167	1.70325
3469.63302	1.71670
3467.70438	1.72988
3465.77573	1.74263
3463.84709	1.75439
3461.91844	1.76452
3459.98980	1.77277
3458.06115	1.77948
3456.13251	1.78549
3454.20386	1.79177
3452.27522	1.79899
3450.34657	1.80736
3448.41793	1.81677
3446.48928	1.82688
3444.56064	1.83728
3442.63199	1.84760
3440.70334	1.85749
3438.77470	1.86677
3436.84605	1.87550
3434.91741	1.88396
3432.98876	1.89248
3431.06012	1.90114
3429.13147	1.90982
3427.20283	1.91833
3425.27418	1.92657
3423.34554	1.93461
3421.41689	1.94258
3419.48825	1.95050
3417.55960	1.95805
3415.63095	1.96458
3413.70231	1.96946
3411.77366	1.97253
3409.84502	1.97418
3407.91637	1.97521
3405.98773	1.97656
3404.05908	1.97892
3402.13044	1.98250
3400.20179	1.98696
3398.27315	1.99164
3396.34450	1.99575
3394.41586	1.99867
3392.48721	2.00000
3390.55856	1.99969
3388.62992	1.99801
3386.70127	1.99553
3384.77263	1.99304
3382.84398	1.99137
3380.91534	1.99106
3378.98669	1.99218
3377.05805	1.99430
3375.12940	1.99670
3373.20076	1.99853
3371.27211	1.99922
3369.34347	1.99867
3367.41482	1.99732
3365.48617	1.99582
3363.55753	1.99462
3361.62888	1.99383
3359.70024	1.99318
3357.77159	1.99216
3355.84295	1.99028
3353.91430	1.98729
3351.98566	1.98335
3350.05701	1.97882
3348.12837	1.97405
3346.19972	1.96920
3344.27108	1.96431
3342.34243	1.95941
3340.41378	1.95462
3338.48514	1.95012
3336.55649	1.94610
3334.62785	1.94268
3332.69920	1.93978
3330.77056	1.93713
3328.84191	1.93445
3326.91327	1.93156
3324.98462	1.92848
3323.05598	1.92534
3321.12733	1.92235
3319.19869	1.91973
3317.27004	1.91763
3315.34140	1.91606
3313.41275	1.91485
3311.48410	1.91368
3309.55546	1.91218
3307.62681	1.91000
3305.69817	1.90705
3303.76952	1.90363
3301.84088	1.90034
3299.91223	1.89788
3297.98359	1.89671
3296.05494	1.89681
3294.12630	1.89749
3292.19765	1.89768
3290.26901	1.89637
3288.34036	1.89319
3286.41171	1.88858
3284.48307	1.88362
3282.55442	1.87944
3280.62578	1.87658
3278.69713	1.87463
3276.76849	1.87245
3274.83984	1.86880
3272.91120	1.86301
3270.98255	1.85545
3269.05391	1.84720
3267.12526	1.83948
3265.19662	1.83288
3263.26797	1.82720
3261.33932	1.82172
3259.41068	1.81566
3257.48203	1.80861
3255.55339	1.80069
3253.62474	1.79230
3251.69610	1.78382
3249.76745	1.77530
3247.83881	1.76659
3245.91016	1.75765
3243.98152	1.74864
3242.05287	1.73986
3240.12423	1.73156
3238.19558	1.72384
3236.26693	1.71670
3234.33829	1.71006
3232.40964	1.70383
3230.48100	1.69787
3228.55235	1.69195
3226.62371	1.68561
3224.69506	1.67826
3222.76642	1.66951
3220.83777	1.65942
3218.90913	1.64849
3216.98048	1.63744
3215.05184	1.62683
3213.12319	1.61695
3211.19455	1.60779
3209.26590	1.59917
3207.33725	1.59099
3205.40861	1.58323
3203.47996	1.57581
3201.55132	1.56848
3199.62267	1.56085
3197.69403	1.55256
3195.76538	1.54350
3193.83674	1.53387
3191.90809	1.52403
3189.97945	1.51431
3188.05080	1.50478
3186.12216	1.49526
3184.19351	1.48543
3182.26486	1.47515
3180.33622	1.46460
3178.40757	1.45424
3176.47893	1.44459
3174.55028	1.43598
3172.62164	1.42845
3170.69299	1.42163
3168.76435	1.41489
3166.83570	1.40756
3164.90706	1.39915
3162.97841	1.38954
3161.04977	1.37897
3159.12112	1.36787
3157.19247	1.35674
3155.26383	1.34590
3153.33518	1.33551
3151.40654	1.32557
3149.47789	1.31605
3147.54925	1.30696
3145.62060	1.29830
3143.69196	1.28996
3141.76331	1.28177
3139.83467	1.27346
3137.90602	1.26487
3135.97738	1.25599
3134.04873	1.24706
3132.12008	1.23838
3130.19144	1.23020
3128.26279	1.22266
3126.33415	1.21571
3124.40550	1.20919
3122.47686	1.20296
3120.54821	1.19698
3118.61957	1.19131
3116.69092	1.18589
3114.76228	1.18051
3112.83363	1.17478
3110.90499	1.16829
3108.97634	1.16079
3107.04769	1.15229
3105.11905	1.14314
3103.19040	1.13387
3101.26176	1.12497
3099.33311	1.11679
3097.40447	1.10955
3095.47582	1.10331
3093.54718	1.09783
3091.61853	1.09276
3089.68989	1.08769
3087.76124	1.08232
3085.83260	1.07653
3083.90395	1.07043
3081.97531	1.06433
3080.04666	1.05847
3078.11801	1.05285
3076.18937	1.04733
3074.26072	1.04176
3072.33208	1.03617
3070.40343	1.03070
3068.47479	1.02544
3066.54614	1.02023
3064.61750	1.01459
3062.68885	1.00780
3060.76021	0.99929
3058.83156	0.98899
3056.90292	0.97756
3054.97427	0.96619
3053.04562	0.95617
3051.11698	0.94833
3049.18833	0.94275
3047.25969	0.93873
3045.33104	0.93509
3043.40240	0.93064
3041.47375	0.92469
3039.54511	0.91725
3037.61646	0.90895
3035.68782	0.90063
3033.75917	0.89300
3031.83053	0.88646
3029.90188	0.88102
3027.97323	0.87639
3026.04459	0.87213
3024.11594	0.86784
3022.18730	0.86321
3020.25865	0.85803
3018.33001	0.85234
3016.40136	0.84649
3014.47272	0.84104
3012.54407	0.83652
3010.61543	0.83319
3008.68678	0.83093
3006.75814	0.82938
3004.82949	0.82803
3002.90084	0.82642
3000.97220	0.82436
2999.04355	0.82191
2997.11491	0.81938
2995.18626	0.81725
2993.25762	0.81611
2991.32897	0.81639
2989.40033	0.81783
2987.47168	0.81960
2985.54304	0.82077
2983.61439	0.82096
2981.68575	0.82058
2979.75710	0.82089
2977.82845	0.82336
2975.89981	0.82876
2973.97116	0.83649
2972.04252	0.84498
2970.11387	0.85262
2968.18523	0.85844
2966.25658	0.86227
2964.32794	0.86442
2962.39929	0.86526
2960.47065	0.86474
2958.54200	0.86251
2956.61336	0.85848
2954.68471	0.85330
2952.75607	0.84824
2950.82742	0.84463
2948.89877	0.84331
2946.97013	0.84427
2945.04148	0.84675
2943.11284	0.84979
2941.18419	0.85290
2939.25555	0.85629
2937.32690	0.86045
2935.39826	0.86565
2933.46961	0.87171
2931.54097	0.87790
2929.61232	0.88330
2927.68368	0.88712
2925.75503	0.88888
2923.82638	0.88813
2921.89774	0.88427
2919.96909	0.87656
2918.04045	0.86447
2916.11180	0.84829
2914.18316	0.82944
2912.25451	0.81007
2910.32587	0.79221
2908.39722	0.77714
2906.46858	0.76522
2904.53993	0.75591
2902.61129	0.74819
2900.68264	0.74107
2898.75399	0.73412
2896.82535	0.72732
2894.89670	0.72083
2892.96806	0.71489
2891.03941	0.70974
2889.11077	0.70538
2887.18212	0.70146
2885.25348	0.69752
2883.32483	0.69340
2881.39619	0.68936
2879.46754	0.68583
2877.53890	0.68302
2875.61025	0.68072
2873.68160	0.67828
2871.75296	0.67496
2869.82431	0.67042
2867.89567	0.66503
2865.96702	0.65974
2864.03838	0.65553
2862.10973	0.65304
2860.18109	0.65249
2858.25244	0.65367
2856.32380	0.65569
2854.39515	0.65702
2852.46651	0.65588
2850.53786	0.65089
2848.60922	0.64164
2846.68057	0.62908
2844.75192	0.61529
2842.82328	0.60248
2840.89463	0.59185
2838.96599	0.58324
2837.03734	0.57556
2835.10870	0.56771
2833.18005	0.55927
2831.25141	0.55068
2829.32276	0.54288
2827.39412	0.53661
2825.46547	0.53194
2823.53683	0.52826
2821.60818	0.52461
2819.67953	0.52032
2817.75089	0.51533
2815.82224	0.51020
2813.89360	0.50579
2811.96495	0.50278
2810.03631	0.50124
2808.10766	0.50056
2806.17902	0.49980
2804.25037	0.49825
2802.32173	0.49566
2800.39308	0.49222
2798.46444	0.48830
2796.53579	0.48428
2794.60714	0.48033
2792.67850	0.47636
2790.74985	0.47229
2788.82121	0.46824
2786.89256	0.46447
2784.96392	0.46123
2783.03527	0.45885
2781.10663	0.45762
2779.17798	0.45760
2777.24934	0.45849
2775.32069	0.45974
2773.39205	0.46064
2771.46340	0.46046
2769.53475	0.45874
2767.60611	0.45561
2765.67746	0.45169
2763.74882	0.44786
2761.82017	0.44488
2759.89153	0.44300
2757.96288	0.44191
2756.03424	0.44089
2754.10559	0.43927
2752.17695	0.43681
2750.24830	0.43370
2748.31966	0.43037
2746.39101	0.42712
2744.46236	0.42404
2742.53372	0.42105
2740.60507	0.41804
2738.67643	0.41502
2736.74778	0.41209
2734.81914	0.40939
2732.89049	0.40701
2730.96185	0.40497
2729.03320	0.40332
2727.10456	0.40211
2725.17591	0.40128
2723.24727	0.40050
2721.31862	0.39935
2719.38998	0.39758
2717.46133	0.39518
2715.53268	0.39246
2713.60404	0.38999
2711.67539	0.38829
2709.74675	0.38755
2707.81810	0.38764
2705.88946	0.38818
2703.96081	0.38866
2702.03217	0.38851
2700.10352	0.38738
2698.17488	0.38515
2696.24623	0.38199
2694.31759	0.37828
2692.38894	0.37462
2690.46029	0.37163
2688.53165	0.36951
2686.60300	0.36794
2684.67436	0.36645
2682.74571	0.36459
2680.81707	0.36215
2678.88842	0.35924
2676.95978	0.35629
2675.03113	0.35373
2673.10249	0.35165
2671.17384	0.34982
2669.24520	0.34808
2667.31655	0.34650
2665.38790	0.34528
2663.45926	0.34460
2661.53061	0.34456
2659.60197	0.34490
2657.67332	0.34498
2655.74468	0.34395
2653.81603	0.34126
2651.88739	0.33715
2649.95874	0.33255
2648.03010	0.32876
2646.10145	0.32688
2644.17281	0.32715
2642.24416	0.32877
2640.31551	0.33012
2638.38687	0.32970
2636.45822	0.32700
2634.52958	0.32277
2632.60093	0.31860
2630.67229	0.31595
2628.74364	0.31538
2626.81500	0.31629
2624.88635	0.31731
2622.95771	0.31705
2621.02906	0.31482
2619.10042	0.31101
2617.17177	0.30689
2615.24312	0.30372
2613.31448	0.30189
2611.38583	0.30091
2609.45719	0.29988
2607.52854	0.29797
2605.59990	0.29499
2603.67125	0.29168
2601.74261	0.28926
2599.81396	0.28852
2597.88532	0.28912
2595.95667	0.29005
2594.02803	0.29015
2592.09938	0.28860
2590.17074	0.28529
2588.24209	0.28095
2586.31344	0.27689
2584.38480	0.27445
2582.45615	0.27434
2580.52751	0.27638
2578.59886	0.27964
2576.67022	0.28273
2574.74157	0.28421
2572.81293	0.28319
2570.88428	0.27989
2568.95564	0.27543
2567.02699	0.27091
2565.09835	0.26686
2563.16970	0.26343
2561.24105	0.26065
2559.31241	0.25858
2557.38376	0.25752
2555.45512	0.25802
2553.52647	0.26019
2551.59783	0.26327
2549.66918	0.26594
2547.74054	0.26713
2545.81189	0.26653
2543.88325	0.26470
2541.95460	0.26301
2540.02596	0.26310
2538.09731	0.26587
2536.16866	0.27089
2534.24002	0.27652
2532.31137	0.28071
2530.38273	0.28174
2528.45408	0.27891
2526.52544	0.27290
2524.59679	0.26569
2522.66815	0.25958
2520.73950	0.25598
2518.81086	0.25494
2516.88221	0.25551
2514.95357	0.25645
2513.02492	0.25678
2511.09627	0.25627
2509.16763	0.25564
2507.23898	0.25593
2505.31034	0.25760
2503.38169	0.26031
2501.45305	0.26319
2499.52440	0.26495
2497.59576	0.26414
2495.66711	0.25987
2493.73847	0.25272
2491.80982	0.24431
2489.88118	0.23659
2487.95253	0.23154
2486.02389	0.23076
2484.09524	0.23443
2482.16659	0.24087
2480.23795	0.24776
2478.30930	0.25370
2476.38066	0.25851
2474.45201	0.26255
2472.52337	0.26632
2470.59472	0.26997
2468.66608	0.27258
2466.73743	0.27243
2464.80879	0.26856
2462.88014	0.26201
2460.95150	0.25535
2459.02285	0.25119
2457.09420	0.25079
2455.16556	0.25347
2453.23691	0.25695
2451.30827	0.25868
2449.37962	0.25733
2447.45098	0.25343
2445.52233	0.24886
2443.59369	0.24569
2441.66504	0.24518
2439.73640	0.24724
2437.80775	0.25066
2435.87911	0.25390
2433.95046	0.25579
2432.02181	0.25603
2430.09317	0.25506
2428.16452	0.25385
2426.23588	0.25352
2424.30723	0.25463
2422.37859	0.25677
2420.44994	0.25886
2418.52130	0.25973
2416.59265	0.25855
2414.66401	0.25509
2412.73536	0.25019
2410.80672	0.24555
2408.87807	0.24276
2406.94942	0.24264
2405.02078	0.24534
2403.09213	0.25041
2401.16349	0.25654
2399.23484	0.26202
2397.30620	0.26556
2395.37755	0.26652
2393.44891	0.26481
2391.52026	0.26102
2389.59162	0.25639
2387.66297	0.25246
2385.73433	0.25035
2383.80568	0.25044
2381.87703	0.25215
2379.94839	0.25399
2378.01974	0.25399
2376.09110	0.25054
2374.16245	0.24315
2372.23381	0.23303
2370.30516	0.22284
2368.37652	0.21576
2366.44787	0.21419
2364.51923	0.21879
2362.59058	0.22814
2360.66194	0.23926
2358.73329	0.24893
2356.80465	0.25526
2354.87600	0.25838
2352.94735	0.26005
2351.01871	0.26249
2349.09006	0.26703
2347.16142	0.27323
2345.23277	0.27888
2343.30413	0.28142
2341.37548	0.27938
2339.44684	0.27318
2337.51819	0.26489
2335.58955	0.25716
2333.66090	0.25194
2331.73226	0.24971
2329.80361	0.24954
2327.87496	0.24982
2325.94632	0.24915
2324.01767	0.24695
2322.08903	0.24355
2320.16038	0.23990
2318.23174	0.23696
2316.30309	0.23542
2314.37445	0.23547
2312.44580	0.23678
2310.51716	0.23862
2308.58851	0.24021
2306.65987	0.24101
2304.73122	0.24096
2302.80257	0.24048
2300.87393	0.24018
2298.94528	0.24055
2297.01664	0.24161
2295.08799	0.24300
2293.15935	0.24430
2291.23070	0.24534
2289.30206	0.24616
2287.37341	0.24690
2285.44477	0.24755
2283.51612	0.24768
2281.58748	0.24662
2279.65883	0.24389
2277.73018	0.23967
2275.80154	0.23486
2273.87289	0.23059
2271.94425	0.22766
2270.01560	0.22625
2268.08696	0.22590
2266.15831	0.22583
2264.22967	0.22527
2262.30102	0.22381
2260.37238	0.22128
2258.44373	0.21728
2256.51509	0.21148
2254.58644	0.20434
2252.65779	0.19708
2250.72915	0.19119
2248.80050	0.18814
2246.87186	0.18896
2244.94321	0.19332
2243.01457	0.19895
2241.08592	0.20313
2239.15728	0.20436
2237.22863	0.20224
2235.29999	0.19711
2233.37134	0.19050
2231.44270	0.18493
2229.51405	0.18214
2227.58541	0.18140
2225.65676	0.18039
2223.72811	0.17723
2221.79947	0.17166
2219.87082	0.16541
2217.94218	0.16163
2216.01353	0.16268
2214.08489	0.16762
2212.15624	0.17221
2210.22760	0.17216
2208.29895	0.16661
2206.37031	0.15882
2204.44166	0.15382
2202.51302	0.15498
2200.58437	0.16219
2198.65572	0.17242
2196.72708	0.18146
2194.79843	0.18605
2192.86979	0.18549
2190.94114	0.18160
2189.01250	0.17649
2187.08385	0.17092
2185.15521	0.16570
2183.22656	0.16256
2181.29792	0.16191
2179.36927	0.16118
2177.44063	0.15723
2175.51198	0.14937
2173.58333	0.13934
2171.65469	0.12970
2169.72604	0.12296
2167.79740	0.12012
2165.86875	0.11922
2163.94011	0.11669
2162.01146	0.11080
2160.08282	0.10346
2158.15417	0.09924
2156.22553	0.10238
2154.29688	0.11306
2152.36824	0.12645
2150.43959	0.13627
2148.51094	0.13945
2146.58230	0.13763
2144.65365	0.13510
2142.72501	0.13601
2140.79636	0.14164
2138.86772	0.14903
2136.93907	0.15348
2135.01043	0.15298
2133.08178	0.14993
2131.15314	0.14917
2129.22449	0.15396
2127.29585	0.16344
2125.36720	0.17304
2123.43856	0.17761
2121.50991	0.17494
2119.58126	0.16684
2117.65262	0.15756
2115.72397	0.15125
2113.79533	0.14992
2111.86668	0.15280
2109.93804	0.15761
2108.00939	0.16200
2106.08075	0.16443
2104.15210	0.16451
2102.22346	0.16281
2100.29481	0.16042
2098.36617	0.15814
2096.43752	0.15609
2094.50887	0.15384
2092.58023	0.15074
2090.65158	0.14654
2088.72294	0.14180
2086.79429	0.13784
2084.86565	0.13626
2082.93700	0.13811
2081.00836	0.14328
2079.07971	0.15073
2077.15107	0.15891
2075.22242	0.16624
2073.29378	0.17141
2071.36513	0.17375
2069.43648	0.17365
2067.50784	0.17257
2065.57919	0.17233
2063.65055	0.17392
2061.72190	0.17642
2059.79326	0.17699
2057.86461	0.17208
2055.93597	0.15927
2054.00732	0.13865
2052.07868	0.11339
2050.15003	0.08870
2048.22139	0.06952
2046.29274	0.05846
2044.36409	0.05526
2042.43545	0.05756
2040.50680	0.06225
2038.57816	0.06693
2036.64951	0.07102
2034.72087	0.07532
2032.79222	0.08026
2030.86358	0.08485
2028.93493	0.08698
2027.00629	0.08413
2025.07764	0.07439
2023.14900	0.05777
2021.22035	0.03722
2019.29170	0.01775
2017.36306	0.00433
2015.43441	0.00000
2013.50577	0.00482
2011.57712	0.01597
2009.64848	0.02923
2007.71983	0.04115
2005.79119	0.05066
2003.86254	0.05885
2001.93390	0.06846
2000.00525	0.08022
1998.07661	0.09240
1996.14796	0.10213
1994.21932	0.10791
1992.29067	0.11079
1990.36202	0.11339
1988.43338	0.11778
1986.50473	0.12359
1984.57609	0.12763
1982.64744	0.12584
1980.71880	0.11674
1978.79015	0.10348
1976.86151	0.09239
1974.93286	0.08935
1973.00422	0.09643
1971.07557	0.11067
1969.14693	0.12540
1967.21828	0.13363
1965.28963	0.13157
1963.36099	0.12035
1961.43234	0.10513
1959.50370	0.09250
1957.57505	0.08776
1955.64641	0.09299
1953.71776	0.10639
1951.78912	0.12335
1949.86047	0.13844
1947.93183	0.14747
1946.00318	0.14894
1944.07454	0.14427
1942.14589	0.13689
1940.21724	0.13057
1938.28860	0.12787
1936.35995	0.12933
1934.43131	0.13356
1932.50266	0.13812
1930.57402	0.14081
1928.64537	0.14070
1926.71673	0.13827
1924.78808	0.13498
1922.85944	0.13254
1920.93079	0.13228
1919.00215	0.13466
1917.07350	0.13931
1915.14485	0.14538
1913.21621	0.15195
1911.28756	0.15822
1909.35892	0.16359
1907.43027	0.16769
1905.50163	0.17033
1903.57298	0.17140
1901.64434	0.17091
1899.71569	0.16907
1897.78705	0.16647
1895.85840	0.16390
1893.92976	0.16215
1892.00111	0.16171
1890.07246	0.16268
1888.14382	0.16464
1886.21517	0.16676
1884.28653	0.16814
1882.35788	0.16812
1880.42924	0.16635
1878.50059	0.16284
1876.57195	0.15798
1874.64330	0.15268
1872.71466	0.14804
1870.78601	0.14502
1868.85737	0.14405
1866.92872	0.14492
1865.00008	0.14690
1863.07143	0.14907
1861.14278	0.15074
1859.21414	0.15176
1857.28549	0.15243
1855.35685	0.15312
1853.42820	0.15398
1851.49956	0.15482
1849.57091	0.15526
1847.64227	0.15494
1845.71362	0.15376
1843.78498	0.15202
1841.85633	0.15035
1839.92769	0.14943
1837.99904	0.14965
1836.07039	0.15095
1834.14175	0.15288
1832.21310	0.15476
1830.28446	0.15597
1828.35581	0.15622
1826.42717	0.15566
1824.49852	0.15474
1822.56988	0.15395
1820.64123	0.15362
1818.71259	0.15378
1816.78394	0.15422
1814.85530	0.15464
1812.92665	0.15495
1810.99800	0.15531
1809.06936	0.15597
1807.14071	0.15713
1805.21207	0.15869
1803.28342	0.16032
1801.35478	0.16157
1799.42613	0.16217
1797.49749	0.16223
1795.56884	0.16216
1793.64020	0.16246
1791.71155	0.16353
1789.78291	0.16548
1787.85426	0.16809
1785.92561	0.17094
1783.99697	0.17355
1782.06832	0.17559
1780.13968	0.17710
1778.21103	0.17849
1776.28239	0.18046
1774.35374	0.18364
1772.42510	0.18825
1770.49645	0.19389
1768.56781	0.19972
1766.63916	0.20482
1764.71052	0.20869
1762.78187	0.21149
1760.85322	0.21395
1758.92458	0.21699
1756.99593	0.22132
1755.06729	0.22721
1753.13864	0.23451
1751.21000	0.24289
1749.28135	0.25202
1747.35271	0.26174
1745.42406	0.27200
1743.49542	0.28277
1741.56677	0.29389
1739.63813	0.30503
1737.70948	0.31570
1735.78084	0.32545
1733.85219	0.33391
1731.92354	0.34104
1729.99490	0.34715
1728.06625	0.35285
1726.13761	0.35884
1724.20896	0.36565
1722.28032	0.37357
1720.35167	0.38257
1718.42303	0.39239
1716.49438	0.40264
1714.56574	0.41301
1712.63709	0.42342
1710.70845	0.43405
1708.77980	0.44535
1706.85115	0.45801
1704.92251	0.47272
1702.99386	0.48998
1701.06522	0.50990
1699.13657	0.53215
1697.20793	0.55619
1695.27928	0.58148
1693.35064	0.60770
1691.42199	0.63473
1689.49335	0.66260
1687.56470	0.69133
1685.63606	0.72082
1683.70741	0.75088
1681.77876	0.78132
1679.85012	0.81198
1677.92147	0.84275
1675.99283	0.87354
1674.06418	0.90426
1672.13554	0.93485
1670.20689	0.96522
1668.27825	0.99528
1666.34960	1.02489
1664.42096	1.05383
1662.49231	1.08165
1660.56367	1.10781
1658.63502	1.13176
1656.70637	1.15309
1654.77773	1.17157
1652.84908	1.18707
1650.92044	1.19962
1648.99179	1.20929
1647.06315	1.21617
1645.13450	1.22035
1643.20586	1.22199
1641.27721	1.22137
1639.34857	1.21877
1637.41992	1.21437
1635.49128	1.20829
1633.56263	1.20060
1631.63399	1.19131
1629.70534	1.18054
1627.77669	1.16850
1625.84805	1.15557
1623.91940	1.14223
1621.99076	1.12900
1620.06211	1.11638
1618.13347	1.10475
1616.20482	1.09436
1614.27618	1.08526
1612.34753	1.07733
1610.41889	1.07033
1608.49024	1.06399
1606.56160	1.05815
1604.63295	1.05269
1602.70430	1.04748
1600.77566	1.04226
1598.84701	1.03661
1596.91837	1.02996
1594.98972	1.02175
1593.06108	1.01162
1591.13243	0.99957
1589.20379	0.98598
1587.27514	0.97156
1585.34650	0.95709
1583.41785	0.94331
1581.48921	0.93065
1579.56056	0.91923
1577.63191	0.90884
1575.70327	0.89908
1573.77462	0.88960
1571.84598	0.88033
1569.91733	0.87148
1567.98869	0.86339
1566.06004	0.85631
1564.13140	0.85015
1562.20275	0.84436
1560.27411	0.83812
1558.34546	0.83059
1556.41682	0.82130
1554.48817	0.81025
1552.55952	0.79786
1550.63088	0.78472
1548.70223	0.77125
1546.77359	0.75759
1544.84494	0.74358
1542.91630	0.72897
1540.98765	0.71369
1539.05901	0.69804
1537.13036	0.68266
1535.20172	0.66835
1533.27307	0.65582
1531.34443	0.64556
1529.41578	0.63763
1527.48713	0.63176
1525.55849	0.62726
1523.62984	0.62316
1521.70120	0.61834
1519.77255	0.61179
1517.84391	0.60285
1515.91526	0.59134
1513.98662	0.57758
1512.05797	0.56221
1510.12933	0.54599
1508.20068	0.52958
1506.27204	0.51344
1504.34339	0.49791
1502.41475	0.48324
1500.48610	0.46954
1498.55745	0.45681
1496.62881	0.44492
1494.70016	0.43376
1492.77152	0.42320
1490.84287	0.41329
1488.91423	0.40432
1486.98558	0.39681
1485.05694	0.39151
1483.12829	0.38926
1481.19965	0.39077
1479.27100	0.39641
1477.34236	0.40605
1475.41371	0.41898
1473.48506	0.43407
1471.55642	0.44993
1469.62777	0.46532
1467.69913	0.47929
1465.77048	0.49129
1463.84184	0.50105
1461.91319	0.50846
1459.98455	0.51342
1458.05590	0.51578
1456.12726	0.51548
1454.19861	0.51268
1452.26997	0.50788
1450.34132	0.50188
1448.41267	0.49567
1446.48403	0.49020
1444.55538	0.48618
1442.62674	0.48394
1440.69809	0.48347
1438.76945	0.48465
1436.84080	0.48738
1434.91216	0.49178
1432.98351	0.49820
1431.05487	0.50702
1429.12622	0.51845
1427.19758	0.53227
1425.26893	0.54781
1423.34028	0.56413
1421.41164	0.58022
1419.48299	0.59519
1417.55435	0.60845
1415.62570	0.61973
1413.69706	0.62901
1411.76841	0.63646
1409.83977	0.64232
1407.91112	0.64689
1405.98248	0.65032
1404.05383	0.65262
1402.12519	0.65369
1400.19654	0.65346
1398.26789	0.65195
1396.33925	0.64933
1394.41060	0.64584
1392.48196	0.64163
1390.55331	0.63667
1388.62467	0.63076
1386.69602	0.62377
1384.76738	0.61577
1382.83873	0.60711
1380.91009	0.59831
1378.98144	0.58991
1377.05280	0.58222
1375.12415	0.57516
1373.19551	0.56835
1371.26686	0.56124
1369.33821	0.55338
1367.40957	0.54458
1365.48092	0.53503
1363.55228	0.52525
1361.62363	0.51596
1359.69499	0.50781
1357.76634	0.50120
1355.83770	0.49616
1353.90905	0.49236
1351.98041	0.48922
1350.05176	0.48608
1348.12312	0.48240
1346.19447	0.47793
1344.26582	0.47275
1342.33718	0.46723
1340.40853	0.46185
1338.47989	0.45702
1336.55124	0.45298
1334.62260	0.44978
1332.69395	0.44732
1330.76531	0.44547
1328.83666	0.44406
1326.90802	0.44291
1324.97937	0.44180
1323.05073	0.44049
1321.12208	0.43883
1319.19343	0.43672
1317.26479	0.43419
1315.33614	0.43130
1313.40750	0.42820
1311.47885	0.42509
1309.55021	0.42227
1307.62156	0.42012
1305.69292	0.41896
1303.76427	0.41895
1301.83563	0.41998
1299.90698	0.42175
1297.97834	0.42392
1296.04969	0.42623
1294.12104	0.42854
1292.19240	0.43083
1290.26375	0.43314
1288.33511	0.43553
1286.40646	0.43807
1284.47782	0.44092
1282.54917	0.44421
1280.62053	0.44804
1278.69188	0.45230
1276.76324	0.45673
1274.83459	0.46105
1272.90595	0.46512
1270.97730	0.46893
1269.04866	0.47259
1267.12001	0.47623
1265.19136	0.47983
1263.26272	0.48321
1261.33407	0.48604
1259.40543	0.48807
1257.47678	0.48918
1255.54814	0.48943
1253.61949	0.48904
1251.69085	0.48833
1249.76220	0.48766
1247.83356	0.48732
1245.90491	0.48746
1243.97627	0.48808
1242.04762	0.48903
1240.11897	0.49005
1238.19033	0.49092
1236.26168	0.49145
1234.33304	0.49161
1232.40439	0.49153
1230.47575	0.49133
1228.54710	0.49109
1226.61846	0.49076
1224.68981	0.49016
1222.76117	0.48906
1220.83252	0.48729
1218.90388	0.48485
1216.97523	0.48200
1215.04658	0.47913
1213.11794	0.47655
1211.18929	0.47437
1209.26065	0.47250
1207.33200	0.47078
1205.40336	0.46912
1203.47471	0.46764
1201.54607	0.46675
1199.61742	0.46712
1197.68878	0.46944
1195.76013	0.47410
1193.83149	0.48104
1191.90284	0.48980
1189.97419	0.49980
1188.04555	0.51054
1186.11690	0.52189
1184.18826	0.53412
1182.25961	0.54777
1180.33097	0.56328
1178.40232	0.58068
1176.47368	0.59968
1174.54503	0.61999
1172.61639	0.64152
1170.68774	0.66434
1168.75910	0.68846
1166.83045	0.71357
1164.90180	0.73895
1162.97316	0.76355
1161.04451	0.78640
1159.11587	0.80696
1157.18722	0.82555
1155.25858	0.84314
1153.32993	0.86081
1151.40129	0.87919
1149.47264	0.89854
1147.54400	0.91906
1145.61535	0.94118
1143.68671	0.96557
1141.75806	0.99316
1139.82942	1.02467
1137.90077	1.05995
1135.97212	1.09773
1134.04348	1.13623
1132.11483	1.17380
1130.18619	1.20939
1128.25754	1.24273
1126.32890	1.27409
1124.40025	1.30397
1122.47161	1.33273
1120.54296	1.36052
1118.61432	1.38746
1116.68567	1.41371
1114.75703	1.43952
1112.82838	1.46513
1110.89973	1.49071
1108.97109	1.51631
1107.04244	1.54184
1105.11380	1.56721
1103.18515	1.59254
1101.25651	1.61816
1099.32786	1.64454
1097.39922	1.67210
1095.47057	1.70099
1093.54193	1.73086
1091.61328	1.76080
1089.68464	1.78966
1087.75599	1.81639
1085.82734	1.84001
1083.89870	1.85953
1081.97005	1.87395
1080.04141	1.88239
1078.11276	1.88439
1076.18412	1.88011
1074.25547	1.87043
1072.32683	1.85673
1070.39818	1.84043
1068.46954	1.82236
1066.54089	1.80254
1064.61225	1.78068
1062.68360	1.75667
1060.75495	1.73071
1058.82631	1.70334
1056.89766	1.67552
1054.96902	1.64826
1053.04037	1.62211
1051.11173	1.59716
1049.18308	1.57330
1047.25444	1.55045
1045.32579	1.52858
1043.39715	1.50788
1041.46850	1.48860
1039.53986	1.47063
1037.61121	1.45330
1035.68256	1.43551
1033.75392	1.41610
1031.82527	1.39427
1029.89663	1.37009
1027.96798	1.34445
1026.03934	1.31843
1024.11069	1.29275
1022.18205	1.26772
1020.25340	1.24344
1018.32476	1.21985
1016.39611	1.19689
1014.46747	1.17460
1012.53882	1.15309
1010.61018	1.13225
1008.68153	1.11201
1006.75288	1.09272
1004.82424	1.07540
1002.89559	1.06135
1000.96695	1.05145
999.03830	1.04571
997.10966	1.04325
995.18101	1.04261
993.25237	1.04213
991.32372	1.04027
989.39508	1.03587
987.46643	1.02803
985.53779	1.01585
983.60914	0.99849
981.68049	0.97562
979.75185	0.94764
977.82320	0.91546
975.89456	0.88022
973.96591	0.84306
972.03727	0.80496
970.10862	0.76657
968.17998	0.72853
966.25133	0.69166
964.32269	0.65702
962.39404	0.62567
960.46540	0.59847
958.53675	0.57577
956.60810	0.55726
954.67946	0.54200
952.75081	0.52880
950.82217	0.51650
948.89352	0.50440
946.96488	0.49244
945.03623	0.48095
943.10759	0.47025
941.17894	0.46056
939.25030	0.45184
937.32165	0.44393
935.39301	0.43680
933.46436	0.43079
931.53571	0.42623
929.60707	0.42290
927.67842	0.42017
925.74978	0.41760
923.82113	0.41521
921.89249	0.41349
919.96384	0.41316
918.03520	0.41464
916.10655	0.41714
914.17791	0.41862
912.24926	0.41703
910.32062	0.41191
908.39197	0.40476
906.46333	0.39808
904.53468	0.39407
902.60603	0.39360
900.67739	0.39590
898.74874	0.39905
896.82010	0.40127
894.89145	0.40204
892.96281	0.40201
891.03416	0.40223
889.10552	0.40311
887.17687	0.40428
885.24823	0.40515
883.31958	0.40555
881.39094	0.40566
879.46229	0.40558
877.53364	0.40523
875.60500	0.40449
873.67635	0.40322
871.74771	0.40144
869.81906	0.39993
867.89042	0.39998
865.96177	0.40224
864.03313	0.40581
862.10448	0.40869
860.17584	0.40901
858.24719	0.40614
856.31855	0.40123
854.38990	0.39670
852.46125	0.39474
850.53261	0.39593
848.60396	0.39904
846.67532	0.40174
844.74667	0.40188
842.81803	0.39874
840.88938	0.39319
838.96074	0.38687
837.03209	0.38104
835.10345	0.37620
833.17480	0.37227
831.24616	0.36903
829.31751	0.36649
827.38886	0.36513
825.46022	0.36551
823.53157	0.36782
821.60293	0.37166
819.67428	0.37613
817.74564	0.38020
815.81699	0.38306
813.88835	0.38472
811.95970	0.38642
810.03106	0.39037
808.10241	0.39867
806.17377	0.41194
804.24512	0.42881
802.31647	0.44638
800.38783	0.46102
798.45918	0.46955
796.53054	0.47047
794.60189	0.46446
792.67325	0.45388
790.74460	0.44174
788.81596	0.43103
786.88731	0.42435
784.95867	0.42338
783.03002	0.42815
781.10138	0.43674
779.17273	0.44601
777.24409	0.45320
775.31544	0.45695
773.38679	0.45735
771.45815	0.45559
769.52950	0.45359
767.60086	0.45303
765.67221	0.45399
763.74357	0.45486
761.81492	0.45391
759.88628	0.45046
757.95763	0.44468
756.02899	0.43742
754.10034	0.43056
752.17170	0.42635
750.24305	0.42574
748.31440	0.42795
746.38576	0.43182
744.45711	0.43670
742.52847	0.44223
740.59982	0.44817
738.67118	0.45439
736.74253	0.46048
734.81389	0.46530
732.88524	0.46754
730.95660	0.46679
729.02795	0.46377
727.09931	0.46006
725.17066	0.45733
723.24201	0.45662
721.31337	0.45806
719.38472	0.46097
717.45608	0.46451
715.52743	0.46811
713.59879	0.47172
711.67014	0.47574
709.74150	0.48060
707.81285	0.48632
705.88421	0.49242
703.95556	0.49808
702.02692	0.50263
700.09827	0.50577
698.16962	0.50767
696.24098	0.50876
694.31233	0.50962
692.38369	0.51070
690.45504	0.51220
688.52640	0.51415
686.59775	0.51647
684.66911	0.51895
682.74046	0.52111
680.81182	0.52253
678.88317	0.52320
676.95453	0.52339
675.02588	0.52337
673.09723	0.52315
671.16859	0.52235
669.23994	0.52021
667.31130	0.51607
665.38265	0.51041
663.45401	0.50500
661.52536	0.50204
659.59672	0.50320
657.66807	0.50881
655.73943	0.51756
653.81078	0.52701
651.88214	0.53467
649.95349	0.53926
648.02485	0.54097
646.09620	0.54099
644.16755	0.54074
642.23891	0.54108
640.31026	0.54194
638.38162	0.54268
636.45297	0.54286
634.52433	0.54303
632.59568	0.54496
630.66704	0.55024
628.73839	0.55762
626.80975	0.56166
624.88110	0.55454
622.95246	0.53081
621.02381	0.49226
619.09516	0.44995
617.16652	0.42110
615.23787	0.42068
613.30923	0.45269
611.38058	0.50701
609.45194	0.56431
607.52329	0.60593
605.59465	0.62295
603.66600	0.61936
601.73736	0.60789
599.80871	0.60152
597.88007	0.60672
595.95142	0.62173
594.02277	0.63971
592.09413	0.65368
590.16548	0.66028
588.23684	0.66065
586.30819	0.65874
584.37955	0.65870
582.45090	0.66324
580.52226	0.67321
578.59361	0.68769
576.66497	0.70440
574.73632	0.72022
572.80768	0.73215
570.87903	0.73850
568.95038	0.73972
567.02174	0.73827
565.09309	0.73770
563.16445	0.74119
561.23580	0.75024
559.30716	0.76418
557.37851	0.78079
555.44987	0.79779
553.52122	0.81423
551.59258	0.83082
549.66393	0.84916
547.73529	0.87037
545.80664	0.89405
543.87800	0.91796
541.94935	0.93856
540.02070	0.95208
538.09206	0.95609
536.16341	0.95065
534.23477	0.93830
532.30612	0.92296
530.37748	0.90832
528.44883	0.89660
526.52019	0.88781
524.59154	0.87991
522.66290	0.87014
520.73425	0.85649
518.80561	0.83844
516.87696	0.81688
514.94831	0.79355
513.01967	0.77070
511.09102	0.75045
509.16238	0.73426
507.23373	0.72230
505.30509	0.71335
503.37644	0.70539
501.44780	0.69671
499.51915	0.68693
497.59051	0.67741
495.66186	0.67084
493.73322	0.66982
491.80457	0.67533
489.87592	0.68625
487.94728	0.70032
486.01863	0.71570
484.08999	0.73169
482.16134	0.74856
480.23270	0.76673
478.30405	0.78554
476.37541	0.80273
474.44676	0.81510
472.51812	0.82011
470.58947	0.81716
468.66083	0.80772
466.73218	0.79457
464.80353	0.78048
462.87489	0.76681
460.94624	0.75298
459.01760	0.73720
457.08895	0.71793
455.16031	0.69491
453.23166	0.66931
451.30302	0.64326
449.37437	0.61912
447.44573	0.59849
445.51708	0.58179
443.58844	0.56849
441.65979	0.55763
439.73114	0.54812
437.80250	0.53894
435.87385	0.52942
433.94521	0.51960
432.01656	0.51016
430.08792	0.50208
428.15927	0.49594
426.23063	0.49148
424.30198	0.48749
422.37334	0.48225
420.44469	0.47423
418.51605	0.46276
416.58740	0.44831
414.65876	0.43217
412.73011	0.41593
410.80146	0.40112
408.87282	0.38908
406.94417	0.38064
405.01553	0.37582
403.08688	0.37365
401.15824	0.37241
399.22959	0.37011
397.30095	0.36514
395.37230	0.35673
393.44366	0.34505
391.51501	0.33096
389.58637	0.31564
387.65772	0.30043
385.72907	0.28688
383.80043	0.27679
381.87178	0.27168
379.94314	0.27187
378.01449	0.27596
376.08585	0.28117
374.15720	0.28418
372.22856	0.28236
370.29991	0.27478
368.37127	0.26259
366.44262	0.24846
364.51398	0.23553
362.58533	0.22623
360.65668	0.22158
358.72804	0.22096
356.79939	0.22231
354.87075	0.22282
352.94210	0.21981
351.01346	0.21173
349.08481	0.19865
347.15617	0.18202
345.22752	0.16414
343.29888	0.14760
341.37023	0.13488
339.44159	0.12754
337.51294	0.12566
335.58429	0.12754
333.65565	0.13018
331.72700	0.13021
329.79836	0.12533
327.86971	0.11551
325.94107	0.10313
324.01242	0.09171
322.08378	0.08386
320.15513	0.07991
318.22649	0.07812
316.29784	0.07613
314.36920	0.07246
312.44055	0.06717
310.51190	0.06142
308.58326	0.05658
306.65461	0.05235
304.72597	0.04748
302.79732	0.04087
300.86868	0.03271
298.94003	0.02507
297.01139	0.02138
295.08274	0.02512
293.15410	0.03805
291.22545	0.05897
289.29681	0.08361
287.36816	0.10573
285.43952	0.11897
283.51087	0.11925
281.58222	0.10680
279.65358	0.08636
277.72493	0.06532
275.79629	0.05071
273.86764	0.04656
271.93900	0.05249
270.01035	0.06440
268.08171	0.07699
266.15306	0.08654
264.22442	0.09191
262.29577	0.09397
260.36713	0.09416
258.43848	0.09328
256.50983	0.09088
254.58119	0.08594
252.65254	0.07848
250.72390	0.07032
248.79525	0.06444
246.86661	0.06348
244.93796	0.06894
243.00932	0.08061
241.08067	0.09634
239.15203	0.11244
237.22338	0.12509
235.29474	0.13136
233.36609	0.12936
231.43744	0.11857
229.50880	0.10083
227.58015	0.08062
225.65151	0.06373
223.72286	0.05519
221.79422	0.05789
219.86557	0.07148
217.93693	0.09213
216.00828	0.11465
214.07964	0.13551
212.15099	0.15395
210.22235	0.17045
208.29370	0.18502
206.36505	0.19671
204.43641	0.20350
202.50776	0.20263
200.57912	0.19236
198.65047	0.17395
196.72183	0.15162
194.79318	0.13124
192.86454	0.11945
190.93589	0.12228
189.00725	0.14238
187.07860	0.17678
185.14996	0.21782
183.22131	0.25703
181.29267	0.28911
179.36402	0.31390
177.43537	0.33533
175.50673	0.35723
173.57808	0.37844
171.64944	0.39177
169.72079	0.38820
167.79215	0.36378
165.86350	0.32438
163.93486	0.28572
162.00621	0.27648
160.07757	0.29471
158.14892	0.33214
156.22028	0.37551
154.29163	0.37551
152.36298	0.37551
150.43434	0.37551
148.50569	0.37551
