4497.60101	0.06873
4495.67236	0.06873
4493.74372	0.06873
4491.81507	0.06873
4489.88643	0.06873
4487.95778	0.06912
4486.02914	0.06817
4484.10049	0.06572
4482.17185	0.06226
4480.24320	0.05862
4478.31455	0.05641
4476.38591	0.05590
4474.45726	0.05681
4472.52862	0.05867
4470.59997	0.06085
4468.67133	0.06293
4466.74268	0.06481
4464.81404	0.06641
4462.88539	0.06733
4460.95675	0.06731
4459.02810	0.06680
4457.09946	0.06658
4455.17081	0.06711
4453.24216	0.06863
4451.31352	0.07126
4449.38487	0.07470
4447.45623	0.07807
4445.52758	0.08032
4443.59894	0.08086
4441.67029	0.07972
4439.74165	0.07721
4437.81300	0.07411
4435.88436	0.07163
4433.95571	0.07057
4432.02707	0.07055
4430.09842	0.07034
4428.16978	0.06904
4426.24113	0.06673
4424.31248	0.06416
4422.38384	0.06246
4420.45519	0.06285
4418.52655	0.06586
4416.59790	0.07066
4414.66926	0.07536
4412.74061	0.07825
4410.81197	0.07887
4408.88332	0.07786
4406.95468	0.07620
4405.02603	0.07479
4403.09739	0.07414
4401.16874	0.07400
4399.24009	0.07353
4397.31145	0.07209
4395.38280	0.06997
4393.45416	0.06807
4391.52551	0.06710
4389.59687	0.06740
4387.66822	0.06883
4385.73958	0.07071
4383.81093	0.07206
4381.88229	0.07208
4379.95364	0.07039
4378.02500	0.06713
4376.09635	0.06315
4374.16770	0.05983
4372.23906	0.05844
4370.31041	0.05962
4368.38177	0.06317
4366.45312	0.06832
4364.52448	0.07400
4362.59583	0.07904
4360.66719	0.08246
4358.73854	0.08388
4356.80990	0.08361
4354.88125	0.08220
4352.95261	0.08027
4351.02396	0.07848
4349.09531	0.07737
4347.16667	0.07676
4345.23802	0.07586
4343.30938	0.07412
4341.38073	0.07157
4339.45209	0.06849
4337.52344	0.06529
4335.59480	0.06262
4333.66615	0.06119
4331.73751	0.06141
4329.80886	0.06319
4327.88022	0.06609
4325.95157	0.06927
4324.02292	0.07179
4322.09428	0.07292
4320.16563	0.07250
4318.23699	0.07094
4316.30834	0.06900
4314.37970	0.06737
4312.45105	0.06642
4310.52241	0.06620
4308.59376	0.06654
4306.66512	0.06735
4304.73647	0.06868
4302.80783	0.07037
4300.87918	0.07188
4298.95054	0.07261
4297.02189	0.07228
4295.09324	0.07089
4293.16460	0.06865
4291.23595	0.06630
4289.30731	0.06476
4287.37866	0.06445
4285.45002	0.06504
4283.52137	0.06603
4281.59273	0.06715
4279.66408	0.06809
4277.73544	0.06846
4275.80679	0.06825
4273.87815	0.06794
4271.94950	0.06804
4270.02085	0.06878
4268.09221	0.07016
4266.16356	0.07200
4264.23492	0.07376
4262.30627	0.07478
4260.37763	0.07477
4258.44898	0.07397
4256.52034	0.07267
4254.59169	0.07083
4252.66305	0.06839
4250.73440	0.06549
4248.80576	0.06258
4246.87711	0.06036
4244.94846	0.05968
4243.01982	0.06104
4241.09117	0.06408
4239.16253	0.06772
4237.23388	0.07079
4235.30524	0.07254
4233.37659	0.07281
4231.44795	0.07188
4229.51930	0.07033
4227.59066	0.06874
4225.66201	0.06743
4223.73337	0.06631
4221.80472	0.06519
4219.87607	0.06427
4217.94743	0.06383
4216.01878	0.06380
4214.09014	0.06392
4212.16149	0.06400
4210.23285	0.06382
4208.30420	0.06320
4206.37556	0.06255
4204.44691	0.06272
4202.51827	0.06397
4200.58962	0.06584
4198.66098	0.06774
4196.73233	0.06909
4194.80368	0.06919
4192.87504	0.06784
4190.94639	0.06591
4189.01775	0.06449
4187.08910	0.06387
4185.16046	0.06390
4183.23181	0.06455
4181.30317	0.06561
4179.37452	0.06653
4177.44588	0.06713
4175.51723	0.06785
4173.58859	0.06899
4171.65994	0.07019
4169.73130	0.07102
4167.80265	0.07136
4165.87400	0.07132
4163.94536	0.07099
4162.01671	0.07057
4160.08807	0.07022
4158.15942	0.06981
4156.23078	0.06917
4154.30213	0.06843
4152.37349	0.06795
4150.44484	0.06807
4148.51620	0.06890
4146.58755	0.07026
4144.65891	0.07155
4142.73026	0.07215
4140.80161	0.07181
4138.87297	0.07083
4136.94432	0.06966
4135.01568	0.06885
4133.08703	0.06912
4131.15839	0.07100
4129.22974	0.07425
4127.30110	0.07787
4125.37245	0.08068
4123.44381	0.08176
4121.51516	0.08059
4119.58652	0.07739
4117.65787	0.07335
4115.72922	0.07009
4113.80058	0.06855
4111.87193	0.06859
4109.94329	0.06949
4108.01464	0.07048
4106.08600	0.07093
4104.15735	0.07057
4102.22871	0.06980
4100.30006	0.06947
4098.37142	0.07003
4096.44277	0.07114
4094.51413	0.07213
4092.58548	0.07261
4090.65683	0.07262
4088.72819	0.07242
4086.79954	0.07237
4084.87090	0.07262
4082.94225	0.07278
4081.01361	0.07215
4079.08496	0.07057
4077.15632	0.06873
4075.22767	0.06774
4073.29903	0.06845
4071.37038	0.07096
4069.44174	0.07453
4067.51309	0.07785
4065.58444	0.07980
4063.65580	0.08022
4061.72715	0.07978
4059.79851	0.07924
4057.86986	0.07910
4055.94122	0.07945
4054.01257	0.07998
4052.08393	0.08008
4050.15528	0.07928
4048.22664	0.07765
4046.29799	0.07578
4044.36935	0.07433
4042.44070	0.07377
4040.51206	0.07438
4038.58341	0.07611
4036.65476	0.07854
4034.72612	0.08098
4032.79747	0.08281
4030.86883	0.08358
4028.94018	0.08291
4027.01154	0.08069
4025.08289	0.07737
4023.15425	0.07380
4021.22560	0.07083
4019.29696	0.06893
4017.36831	0.06828
4015.43967	0.06881
4013.51102	0.07008
4011.58237	0.07149
4009.65373	0.07249
4007.72508	0.07254
4005.79644	0.07104
4003.86779	0.06784
4001.93915	0.06372
4000.01050	0.06021
3998.08186	0.05875
3996.15321	0.05997
3994.22457	0.06355
3992.29592	0.06839
3990.36728	0.07304
3988.43863	0.07642
3986.50998	0.07823
3984.58134	0.07877
3982.65269	0.07854
3980.72405	0.07794
3978.79540	0.07733
3976.86676	0.07700
3974.93811	0.07718
3973.00947	0.07795
3971.08082	0.07916
3969.15218	0.08046
3967.22353	0.08146
3965.29489	0.08191
3963.36624	0.08171
3961.43759	0.08091
3959.50895	0.07957
3957.58030	0.07778
3955.65166	0.07565
3953.72301	0.07343
3951.79437	0.07155
3949.86572	0.07053
3947.93708	0.07081
3946.00843	0.07244
3944.07979	0.07498
3942.15114	0.07759
3940.22250	0.07935
3938.29385	0.07960
3936.36521	0.07821
3934.43656	0.07565
3932.50791	0.07272
3930.57927	0.07025
3928.65062	0.06875
3926.72198	0.06841
3924.79333	0.06905
3922.86469	0.07035
3920.93604	0.07194
3919.00740	0.07347
3917.07875	0.07462
3915.15011	0.07517
3913.22146	0.07505
3911.29282	0.07436
3909.36417	0.07330
3907.43552	0.07208
3905.50688	0.07091
3903.57823	0.06993
3901.64959	0.06921
3899.72094	0.06872
3897.79230	0.06838
3895.86365	0.06806
3893.93501	0.06766
3892.00636	0.06726
3890.07772	0.06706
3888.14907	0.06735
3886.22043	0.06820
3884.29178	0.06940
3882.36313	0.07041
3880.43449	0.07067
3878.50584	0.06991
3876.57720	0.06831
3874.64855	0.06648
3872.71991	0.06516
3870.79126	0.06491
3868.86262	0.06576
3866.93397	0.06726
3865.00533	0.06867
3863.07668	0.06933
3861.14804	0.06901
3859.21939	0.06802
3857.29074	0.06705
3855.36210	0.06679
3853.43345	0.06754
3851.50481	0.06901
3849.57616	0.07050
3847.64752	0.07125
3845.71887	0.07094
3843.79023	0.06973
3841.86158	0.06818
3839.93294	0.06698
3838.00429	0.06655
3836.07565	0.06695
3834.14700	0.06782
3832.21835	0.06862
3830.28971	0.06894
3828.36106	0.06852
3826.43242	0.06741
3824.50377	0.06587
3822.57513	0.06437
3820.64648	0.06335
3818.71784	0.06302
3816.78919	0.06337
3814.86055	0.06422
3812.93190	0.06533
3811.00326	0.06645
3809.07461	0.06739
3807.14597	0.06805
3805.21732	0.06841
3803.28867	0.06849
3801.36003	0.06847
3799.43138	0.06861
3797.50274	0.06917
3795.57409	0.07024
3793.64545	0.07167
3791.71680	0.07322
3789.78816	0.07461
3787.85951	0.07572
3785.93087	0.07652
3784.00222	0.07709
3782.07358	0.07743
3780.14493	0.07741
3778.21628	0.07690
3776.28764	0.07587
3774.35899	0.07445
3772.43035	0.07287
3770.50170	0.07140
3768.57306	0.07028
3766.64441	0.06968
3764.71577	0.06961
3762.78712	0.06995
3760.85848	0.07045
3758.92983	0.07085
3757.00119	0.07094
3755.07254	0.07070
3753.14389	0.07033
3751.21525	0.07017
3749.28660	0.07045
3747.35796	0.07113
3745.42931	0.07188
3743.50067	0.07238
3741.57202	0.07243
3739.64338	0.07211
3737.71473	0.07175
3735.78609	0.07165
3733.85744	0.07189
3731.92880	0.07226
3730.00015	0.07250
3728.07150	0.07253
3726.14286	0.07262
3724.21421	0.07321
3722.28557	0.07463
3720.35692	0.07681
3718.42828	0.07917
3716.49963	0.08093
3714.57099	0.08152
3712.64234	0.08084
3710.71370	0.07933
3708.78505	0.07768
3706.85641	0.07662
3704.92776	0.07670
3702.99911	0.07822
3701.07047	0.08117
3699.14182	0.08534
3697.21318	0.09037
3695.28453	0.09575
3693.35589	0.10092
3691.42724	0.10544
3689.49860	0.10918
3687.56995	0.11226
3685.64131	0.11493
3683.71266	0.11748
3681.78402	0.12030
3679.85537	0.12374
3677.92673	0.12803
3675.99808	0.13324
3674.06943	0.13916
3672.14079	0.14535
3670.21214	0.15131
3668.28350	0.15666
3666.35485	0.16143
3664.42621	0.16605
3662.49756	0.17122
3660.56892	0.17764
3658.64027	0.18576
3656.71163	0.19571
3654.78298	0.20725
3652.85434	0.21986
3650.92569	0.23296
3648.99704	0.24608
3647.06840	0.25896
3645.13975	0.27165
3643.21111	0.28447
3641.28246	0.29788
3639.35382	0.31219
3637.42517	0.32737
3635.49653	0.34298
3633.56788	0.35844
3631.63924	0.37321
3629.71059	0.38715
3627.78195	0.40051
3625.85330	0.41393
3623.92465	0.42803
3621.99601	0.44314
3620.06736	0.45913
3618.13872	0.47559
3616.21007	0.49215
3614.28143	0.50860
3612.35278	0.52486
3610.42414	0.54083
3608.49549	0.55629
3606.56685	0.57105
3604.63820	0.58505
3602.70956	0.59868
3600.78091	0.61277
3598.85226	0.62821
3596.92362	0.64543
3594.99497	0.66400
3593.06633	0.68281
3591.13768	0.70066
3589.20904	0.71691
3587.28039	0.73178
3585.35175	0.74622
3583.42310	0.76142
3581.49446	0.77823
3579.56581	0.79673
3577.63717	0.81629
3575.70852	0.83595
3573.77988	0.85470
3571.85123	0.87187
3569.92258	0.88728
3567.99394	0.90134
3566.06529	0.91504
3564.13665	0.92958
3562.20800	0.94589
3560.27936	0.96424
3558.35071	0.98409
3556.42207	1.00436
3554.49342	1.02387
3552.56478	1.04191
3550.63613	1.05847
3548.70749	1.07413
3546.77884	1.08953
3544.85019	1.10507
3542.92155	1.12089
3540.99290	1.13697
3539.06426	1.15326
3537.13561	1.16975
3535.20697	1.18639
3533.27832	1.20300
3531.34968	1.21930
3529.42103	1.23518
3527.49239	1.25084
3525.56374	1.26678
3523.63510	1.28346
3521.70645	1.30101
3519.77780	1.31909
3517.84916	1.33703
3515.92051	1.35421
3513.99187	1.37033
3512.06322	1.38557
3510.13458	1.40027
3508.20593	1.41466
3506.27729	1.42874
3504.34864	1.44237
3502.42000	1.45543
3500.49135	1.46797
3498.56271	1.48017
3496.63406	1.49232
3494.70541	1.50461
3492.77677	1.51713
3490.84812	1.53000
3488.91948	1.54343
3486.99083	1.55767
3485.06219	1.57282
3483.13354	1.58867
3481.20490	1.60465
3479.27625	1.62000
3477.34761	1.63400
3475.41896	1.64626
3473.49032	1.65691
3471.56167	1.66642
3469.63302	1.67547
3467.70438	1.68464
3465.77573	1.69436
3463.84709	1.70482
3461.91844	1.71611
3459.98980	1.72824
3458.06115	1.74113
3456.13251	1.75461
3454.20386	1.76834
3452.27522	1.78174
3450.34657	1.79406
3448.41793	1.80463
3446.48928	1.81309
3444.56064	1.81964
3442.63199	1.82509
3440.70334	1.83064
3438.77470	1.83743
3436.84605	1.84609
3434.91741	1.85648
3432.98876	1.86771
3431.06012	1.87858
3429.13147	1.88809
3427.20283	1.89586
3425.27418	1.90213
3423.34554	1.90762
3421.41689	1.91319
3419.48825	1.91950
3417.55960	1.92681
3415.63095	1.93497
3413.70231	1.94353
3411.77366	1.95195
3409.84502	1.95963
3407.91637	1.96603
3405.98773	1.97081
3404.05908	1.97390
3402.13044	1.97561
3400.20179	1.97653
3398.27315	1.97745
3396.34450	1.97903
3394.41586	1.98155
3392.48721	1.98486
3390.55856	1.98847
3388.62992	1.99185
3386.70127	1.99466
3384.77263	1.99681
3382.84398	1.99840
3380.91534	1.99950
3378.98669	2.00000
3377.05805	1.99975
3375.12940	1.99862
3373.20076	1.99667
3371.27211	1.99415
3369.34347	1.99151
3367.41482	1.98922
3365.48617	1.98759
3363.55753	1.98672
3361.62888	1.98654
3359.70024	1.98685
3357.77159	1.98728
3355.84295	1.98745
3353.91430	1.98711
3351.98566	1.98614
3350.05701	1.98464
3348.12837	1.98285
3346.19972	1.98107
3344.27108	1.97946
3342.34243	1.97794
3340.41378	1.97633
3338.48514	1.97444
3336.55649	1.97220
3334.62785	1.96967
3332.69920	1.96692
3330.77056	1.96397
3328.84191	1.96083
3326.91327	1.95750
3324.98462	1.95416
3323.05598	1.95111
3321.12733	1.94866
3319.19869	1.94689
3317.27004	1.94565
3315.34140	1.94471
3313.41275	1.94383
3311.48410	1.94290
3309.55546	1.94187
3307.62681	1.94058
3305.69817	1.93874
3303.76952	1.93606
3301.84088	1.93257
3299.91223	1.92875
3297.98359	1.92534
3296.05494	1.92297
3294.12630	1.92183
3292.19765	1.92151
3290.26901	1.92125
3288.34036	1.92035
3286.41171	1.91850
3284.48307	1.91581
3282.55442	1.91249
3280.62578	1.90869
3278.69713	1.90439
3276.76849	1.89963
3274.83984	1.89458
3272.91120	1.88958
3270.98255	1.88501
3269.05391	1.88095
3267.12526	1.87708
3265.19662	1.87282
3263.26797	1.86762
3261.33932	1.86129
3259.41068	1.85403
3257.48203	1.84639
3255.55339	1.83900
3253.62474	1.83224
3251.69610	1.82621
3249.76745	1.82069
3247.83881	1.81537
3245.91016	1.80988
3243.98152	1.80393
3242.05287	1.79744
3240.12423	1.79050
3238.19558	1.78337
3236.26693	1.77631
3234.33829	1.76957
3232.40964	1.76327
3230.48100	1.75736
3228.55235	1.75167
3226.62371	1.74601
3224.69506	1.74016
3222.76642	1.73392
3220.83777	1.72715
3218.90913	1.71976
3216.98048	1.71178
3215.05184	1.70338
3213.12319	1.69480
3211.19455	1.68621
3209.26590	1.67761
3207.33725	1.66886
3205.40861	1.65983
3203.47996	1.65057
3201.55132	1.64141
3199.62267	1.63287
3197.69403	1.62541
3195.76538	1.61909
3193.83674	1.61346
3191.90809	1.60775
3189.97945	1.60122
3188.05080	1.59350
3186.12216	1.58468
3184.19351	1.57513
3182.26486	1.56525
3180.33622	1.55517
3178.40757	1.54485
3176.47893	1.53427
3174.55028	1.52367
3172.62164	1.51356
3170.69299	1.50445
3168.76435	1.49657
3166.83570	1.48967
3164.90706	1.48303
3162.97841	1.47583
3161.04977	1.46751
3159.12112	1.45801
3157.19247	1.44774
3155.26383	1.43732
3153.33518	1.42742
3151.40654	1.41845
3149.47789	1.41054
3147.54925	1.40349
3145.62060	1.39688
3143.69196	1.39017
3141.76331	1.38283
3139.83467	1.37454
3137.90602	1.36543
3135.97738	1.35594
3134.04873	1.34669
3132.12008	1.33815
3130.19144	1.33050
3128.26279	1.32350
3126.33415	1.31672
3124.40550	1.30982
3122.47686	1.30275
3120.54821	1.29573
3118.61957	1.28899
3116.69092	1.28254
3114.76228	1.27614
3112.83363	1.26939
3110.90499	1.26203
3108.97634	1.25414
3107.04769	1.24610
3105.11905	1.23840
3103.19040	1.23139
3101.26176	1.22504
3099.33311	1.21903
3097.40447	1.21296
3095.47582	1.20655
3093.54718	1.19973
3091.61853	1.19260
3089.68989	1.18539
3087.76124	1.17830
3085.83260	1.17144
3083.90395	1.16471
3081.97531	1.15791
3080.04666	1.15088
3078.11801	1.14355
3076.18937	1.13599
3074.26072	1.12838
3072.33208	1.12095
3070.40343	1.11379
3068.47479	1.10681
3066.54614	1.09983
3064.61750	1.09270
3062.68885	1.08540
3060.76021	1.07795
3058.83156	1.07044
3056.90292	1.06292
3054.97427	1.05550
3053.04562	1.04838
3051.11698	1.04179
3049.18833	1.03590
3047.25969	1.03065
3045.33104	1.02570
3043.40240	1.02048
3041.47375	1.01443
3039.54511	1.00728
3037.61646	0.99921
3035.68782	0.99072
3033.75917	0.98236
3031.83053	0.97454
3029.90188	0.96741
3027.97323	0.96086
3026.04459	0.95471
3024.11594	0.94882
3022.18730	0.94311
3020.25865	0.93750
3018.33001	0.93188
3016.40136	0.92615
3014.47272	0.92034
3012.54407	0.91457
3010.61543	0.90900
3008.68678	0.90378
3006.75814	0.89902
3004.82949	0.89481
3002.90084	0.89122
3000.97220	0.88837
2999.04355	0.88640
2997.11491	0.88534
2995.18626	0.88494
2993.25762	0.88475
2991.32897	0.88442
2989.40033	0.88389
2987.47168	0.88333
2985.54304	0.88298
2983.61439	0.88308
2981.68575	0.88385
2979.75710	0.88527
2977.82845	0.88711
2975.89981	0.88921
2973.97116	0.89152
2972.04252	0.89398
2970.11387	0.89640
2968.18523	0.89854
2966.25658	0.90023
2964.32794	0.90126
2962.39929	0.90142
2960.47065	0.90070
2958.54200	0.89936
2956.61336	0.89780
2954.68471	0.89638
2952.75607	0.89533
2950.82742	0.89468
2948.89877	0.89426
2946.97013	0.89392
2945.04148	0.89374
2943.11284	0.89401
2941.18419	0.89498
2939.25555	0.89664
2937.32690	0.89871
2935.39826	0.90076
2933.46961	0.90236
2931.54097	0.90329
2929.61232	0.90351
2927.68368	0.90276
2925.75503	0.90049
2923.82638	0.89599
2921.89774	0.88871
2919.96909	0.87852
2918.04045	0.86602
2916.11180	0.85243
2914.18316	0.83914
2912.25451	0.82720
2910.32587	0.81705
2908.39722	0.80850
2906.46858	0.80094
2904.53993	0.79362
2902.61129	0.78595
2900.68264	0.77772
2898.75399	0.76921
2896.82535	0.76101
2894.89670	0.75372
2892.96806	0.74758
2891.03941	0.74252
2889.11077	0.73818
2887.18212	0.73404
2885.25348	0.72964
2883.32483	0.72496
2881.39619	0.72037
2879.46754	0.71625
2877.53890	0.71270
2875.61025	0.70953
2873.68160	0.70631
2871.75296	0.70269
2869.82431	0.69861
2867.89567	0.69439
2865.96702	0.69064
2864.03838	0.68799
2862.10973	0.68673
2860.18109	0.68668
2858.25244	0.68709
2856.32380	0.68697
2854.39515	0.68529
2852.46651	0.68119
2850.53786	0.67422
2848.60922	0.66461
2846.68057	0.65315
2844.75192	0.64085
2842.82328	0.62869
2840.89463	0.61739
2838.96599	0.60735
2837.03734	0.59861
2835.10870	0.59099
2833.18005	0.58424
2831.25141	0.57815
2829.32276	0.57259
2827.39412	0.56749
2825.46547	0.56273
2823.53683	0.55820
2821.60818	0.55374
2819.67953	0.54913
2817.75089	0.54417
2815.82224	0.53890
2813.89360	0.53370
2811.96495	0.52912
2810.03631	0.52555
2808.10766	0.52306
2806.17902	0.52140
2804.25037	0.51995
2802.32173	0.51792
2800.39308	0.51481
2798.46444	0.51064
2796.53579	0.50580
2794.60714	0.50081
2792.67850	0.49603
2790.74985	0.49161
2788.82121	0.48755
2786.89256	0.48380
2784.96392	0.48047
2783.03527	0.47783
2781.10663	0.47613
2779.17798	0.47535
2777.24934	0.47506
2775.32069	0.47464
2773.39205	0.47365
2771.46340	0.47193
2769.53475	0.46964
2767.60611	0.46705
2765.67746	0.46445
2763.74882	0.46189
2761.82017	0.45922
2759.89153	0.45630
2757.96288	0.45317
2756.03424	0.44999
2754.10559	0.44687
2752.17695	0.44385
2750.24830	0.44087
2748.31966	0.43781
2746.39101	0.43467
2744.46236	0.43164
2742.53372	0.42904
2740.60507	0.42707
2738.67643	0.42574
2736.74778	0.42489
2734.81914	0.42420
2732.89049	0.42333
2730.96185	0.42209
2729.03320	0.42048
2727.10456	0.41847
2725.17591	0.41603
2723.24727	0.41325
2721.31862	0.41029
2719.38998	0.40734
2717.46133	0.40459
2715.53268	0.40226
2713.60404	0.40041
2711.67539	0.39881
2709.74675	0.39713
2707.81810	0.39512
2705.88946	0.39272
2703.96081	0.38994
2702.03217	0.38699
2700.10352	0.38430
2698.17488	0.38217
2696.24623	0.38062
2694.31759	0.37950
2692.38894	0.37851
2690.46029	0.37723
2688.53165	0.37516
2686.60300	0.37221
2684.67436	0.36878
2682.74571	0.36542
2680.81707	0.36256
2678.88842	0.36038
2676.95978	0.35866
2675.03113	0.35678
2673.10249	0.35416
2671.17384	0.35073
2669.24520	0.34698
2667.31655	0.34354
2665.38790	0.34097
2663.45926	0.33942
2661.53061	0.33853
2659.60197	0.33760
2657.67332	0.33594
2655.74468	0.33336
2653.81603	0.33012
2651.88739	0.32681
2649.95874	0.32402
2648.03010	0.32213
2646.10145	0.32114
2644.17281	0.32061
2642.24416	0.31992
2640.31551	0.31851
2638.38687	0.31624
2636.45822	0.31338
2634.52958	0.31045
2632.60093	0.30800
2630.67229	0.30642
2628.74364	0.30570
2626.81500	0.30523
2624.88635	0.30416
2622.95771	0.30200
2621.02906	0.29892
2619.10042	0.29558
2617.17177	0.29274
2615.24312	0.29100
2613.31448	0.29048
2611.38583	0.29059
2609.45719	0.29048
2607.52854	0.28979
2605.59990	0.28879
2603.67125	0.28798
2601.74261	0.28769
2599.81396	0.28794
2597.88532	0.28838
2595.95667	0.28833
2594.02803	0.28713
2592.09938	0.28459
2590.17074	0.28112
2588.24209	0.27754
2586.31344	0.27457
2584.38480	0.27253
2582.45615	0.27127
2580.52751	0.27035
2578.59886	0.26925
2576.67022	0.26773
2574.74157	0.26602
2572.81293	0.26470
2570.88428	0.26405
2568.95564	0.26381
2567.02699	0.26342
2565.09835	0.26249
2563.16970	0.26106
2561.24105	0.25963
2559.31241	0.25893
2557.38376	0.25943
2555.45512	0.26093
2553.52647	0.26278
2551.59783	0.26430
2549.66918	0.26493
2547.74054	0.26436
2545.81189	0.26263
2543.88325	0.26019
2541.95460	0.25772
2540.02596	0.25589
2538.09731	0.25509
2536.16866	0.25522
2534.24002	0.25553
2532.31137	0.25501
2530.38273	0.25294
2528.45408	0.24963
2526.52544	0.24629
2524.59679	0.24432
2522.66815	0.24447
2520.73950	0.24640
2518.81086	0.24893
2516.88221	0.25068
2514.95357	0.25083
2513.02492	0.24950
2511.09627	0.24758
2509.16763	0.24617
2507.23898	0.24584
2505.31034	0.24633
2503.38169	0.24675
2501.45305	0.24617
2499.52440	0.24422
2497.59576	0.24137
2495.66711	0.23876
2493.73847	0.23753
2491.80982	0.23831
2489.88118	0.24112
2487.95253	0.24536
2486.02389	0.24998
2484.09524	0.25383
2482.16659	0.25620
2480.23795	0.25678
2478.30930	0.25565
2476.38066	0.25323
2474.45201	0.25036
2472.52337	0.24810
2470.59472	0.24723
2468.66608	0.24793
2466.73743	0.24980
2464.80879	0.25208
2462.88014	0.25390
2460.95150	0.25444
2459.02285	0.25334
2457.09420	0.25084
2455.16556	0.24774
2453.23691	0.24488
2451.30827	0.24281
2449.37962	0.24183
2447.45098	0.24205
2445.52233	0.24329
2443.59369	0.24495
2441.66504	0.24636
2439.73640	0.24704
2437.80775	0.24676
2435.87911	0.24549
2433.95046	0.24367
2432.02181	0.24217
2430.09317	0.24165
2428.16452	0.24224
2426.23588	0.24365
2424.30723	0.24550
2422.37859	0.24723
2420.44994	0.24833
2418.52130	0.24855
2416.59265	0.24788
2414.66401	0.24648
2412.73536	0.24475
2410.80672	0.24327
2408.87807	0.24250
2406.94942	0.24255
2405.02078	0.24325
2403.09213	0.24424
2401.16349	0.24523
2399.23484	0.24615
2397.30620	0.24712
2395.37755	0.24817
2393.44891	0.24914
2391.52026	0.24967
2389.59162	0.24943
2387.66297	0.24838
2385.73433	0.24687
2383.80568	0.24551
2381.87703	0.24477
2379.94839	0.24469
2378.01974	0.24463
2376.09110	0.24360
2374.16245	0.24079
2372.23381	0.23606
2370.30516	0.23007
2368.37652	0.22413
2366.44787	0.21980
2364.51923	0.21824
2362.59058	0.21957
2360.66194	0.22288
2358.73329	0.22682
2356.80465	0.23006
2354.87600	0.23160
2352.94735	0.23109
2351.01871	0.22908
2349.09006	0.22675
2347.16142	0.22510
2345.23277	0.22448
2343.30413	0.22470
2341.37548	0.22517
2339.44684	0.22512
2337.51819	0.22401
2335.58955	0.22188
2333.66090	0.21933
2331.73226	0.21718
2329.80361	0.21601
2327.87496	0.21608
2325.94632	0.21734
2324.01767	0.21941
2322.08903	0.22164
2320.16038	0.22326
2318.23174	0.22357
2316.30309	0.22226
2314.37445	0.21946
2312.44580	0.21576
2310.51716	0.21205
2308.58851	0.20918
2306.65987	0.20772
2304.73122	0.20773
2302.80257	0.20891
2300.87393	0.21083
2298.94528	0.21312
2297.01664	0.21552
2295.08799	0.21779
2293.15935	0.21953
2291.23070	0.22018
2289.30206	0.21917
2287.37341	0.21613
2285.44477	0.21115
2283.51612	0.20486
2281.58748	0.19829
2279.65883	0.19259
2277.73018	0.18872
2275.80154	0.18710
2273.87289	0.18756
2271.94425	0.18935
2270.01560	0.19131
2268.08696	0.19211
2266.15831	0.19069
2264.22967	0.18678
2262.30102	0.18108
2260.37238	0.17518
2258.44373	0.17100
2256.51509	0.16999
2254.58644	0.17215
2252.65779	0.17571
2250.72915	0.17794
2248.80050	0.17681
2246.87186	0.17215
2244.94321	0.16549
2243.01457	0.15893
2241.08592	0.15405
2239.15728	0.15129
2237.22863	0.14976
2235.29999	0.14806
2233.37134	0.14566
2231.44270	0.14326
2229.51405	0.14185
2227.58541	0.14174
2225.65676	0.14257
2223.72811	0.14372
2221.79947	0.14428
2219.87082	0.14368
2217.94218	0.14239
2216.01353	0.14169
2214.08489	0.14250
2212.15624	0.14489
2210.22760	0.14858
2208.29895	0.15303
2206.37031	0.15697
2204.44166	0.15869
2202.51302	0.15721
2200.58437	0.15237
2198.65572	0.14432
2196.72708	0.13411
2194.79843	0.12432
2192.86979	0.11777
2190.94114	0.11510
2189.01250	0.11415
2187.08385	0.11149
2185.15521	0.10451
2183.22656	0.09303
2181.29792	0.08010
2179.36927	0.07067
2177.44063	0.06895
2175.51198	0.07642
2173.58333	0.09027
2171.65469	0.10322
2169.72604	0.10696
2167.79740	0.09690
2165.86875	0.07391
2163.94011	0.04372
2162.01146	0.01576
2160.08282	-0.00000
2158.15417	0.00079
2156.22553	0.01339
2154.29688	0.02882
2152.36824	0.04053
2150.43959	0.04652
2148.51094	0.04893
2146.58230	0.05237
2144.65365	0.06031
2142.72501	0.07159
2140.79636	0.08154
2138.86772	0.08687
2136.93907	0.08824
2135.01043	0.08854
2133.08178	0.09043
2131.15314	0.09489
2129.22449	0.10101
2127.29585	0.10719
2125.36720	0.11272
2123.43856	0.11830
2121.50991	0.12484
2119.58126	0.13197
2117.65262	0.13781
2115.72397	0.13998
2113.79533	0.13713
2111.86668	0.12992
2109.93804	0.12102
2108.00939	0.11389
2106.08075	0.11132
2104.15210	0.11413
2102.22346	0.12093
2100.29481	0.12880
2098.36617	0.13469
2096.43752	0.13662
2094.50887	0.13439
2092.58023	0.12966
2090.65158	0.12514
2088.72294	0.12306
2086.79429	0.12417
2084.86565	0.12745
2082.93700	0.13066
2081.00836	0.13146
2079.07971	0.12857
2077.15107	0.12257
2075.22242	0.11559
2073.29378	0.11019
2071.36513	0.10821
2069.43648	0.11005
2067.50784	0.11456
2065.57919	0.11962
2063.65055	0.12329
2061.72190	0.12432
2059.79326	0.12210
2057.86461	0.11663
2055.93597	0.10874
2054.00732	0.10030
2052.07868	0.09357
2050.15003	0.09008
2048.22139	0.08972
2046.29274	0.09042
2044.36409	0.08885
2042.43545	0.08222
2040.50680	0.07039
2038.57816	0.05683
2036.64951	0.04750
2034.72087	0.04789
2032.79222	0.06023
2030.86358	0.08237
2028.93493	0.10848
2027.00629	0.13126
2025.07764	0.14476
2023.14900	0.14664
2021.22035	0.13876
2019.29170	0.12590
2017.36306	0.11359
2015.43441	0.10622
2013.50577	0.10577
2011.57712	0.11149
2009.64848	0.12054
2007.71983	0.12922
2005.79119	0.13419
2003.86254	0.13325
2001.93390	0.12548
2000.00525	0.11190
1998.07661	0.09536
1996.14796	0.07992
1994.21932	0.06996
1992.29067	0.06856
1990.36202	0.07648
1988.43338	0.09178
1986.50473	0.11018
1984.57609	0.12625
1982.64744	0.13529
1980.71880	0.13492
1978.79015	0.12579
1976.86151	0.11120
1974.93286	0.09596
1973.00422	0.08482
1971.07557	0.08073
1969.14693	0.08379
1967.21828	0.09123
1965.28963	0.09881
1963.36099	0.10278
1961.43234	0.10152
1959.50370	0.09595
1957.57505	0.08876
1955.64641	0.08293
1953.71776	0.08051
1951.78912	0.08182
1949.86047	0.08551
1947.93183	0.08954
1946.00318	0.09234
1944.07454	0.09341
1942.14589	0.09315
1940.21724	0.09248
1938.28860	0.09253
1936.35995	0.09414
1934.43131	0.09751
1932.50266	0.10227
1930.57402	0.10782
1928.64537	0.11359
1926.71673	0.11893
1924.78808	0.12316
1922.85944	0.12575
1920.93079	0.12652
1919.00215	0.12553
1917.07350	0.12297
1915.14485	0.11916
1913.21621	0.11461
1911.28756	0.11002
1909.35892	0.10621
1907.43027	0.10401
1905.50163	0.10401
1903.57298	0.10616
1901.64434	0.10965
1899.71569	0.11326
1897.78705	0.11602
1895.85840	0.11764
1893.92976	0.11850
1892.00111	0.11927
1890.07246	0.12047
1888.14382	0.12215
1886.21517	0.12384
1884.28653	0.12489
1882.35788	0.12495
1880.42924	0.12408
1878.50059	0.12272
1876.57195	0.12143
1874.64330	0.12070
1872.71466	0.12085
1870.78601	0.12182
1868.85737	0.12322
1866.92872	0.12448
1865.00008	0.12513
1863.07143	0.12506
1861.14278	0.12445
1859.21414	0.12368
1857.28549	0.12319
1855.35685	0.12323
1853.42820	0.12373
1851.49956	0.12440
1849.57091	0.12489
1847.64227	0.12502
1845.71362	0.12480
1843.78498	0.12446
1841.85633	0.12437
1839.92769	0.12482
1837.99904	0.12594
1836.07039	0.12751
1834.14175	0.12906
1832.21310	0.13010
1830.28446	0.13043
1828.35581	0.13018
1826.42717	0.12975
1824.49852	0.12954
1822.56988	0.12976
1820.64123	0.13039
1818.71259	0.13126
1816.78394	0.13222
1814.85530	0.13321
1812.92665	0.13424
1810.99800	0.13526
1809.06936	0.13614
1807.14071	0.13673
1805.21207	0.13702
1803.28342	0.13720
1801.35478	0.13761
1799.42613	0.13852
1797.49749	0.13995
1795.56884	0.14163
1793.64020	0.14319
1791.71155	0.14435
1789.78291	0.14517
1787.85426	0.14602
1785.92561	0.14738
1783.99697	0.14953
1782.06832	0.15243
1780.13968	0.15573
1778.21103	0.15907
1776.28239	0.16226
1774.35374	0.16540
1772.42510	0.16876
1770.49645	0.17253
1768.56781	0.17665
1766.63916	0.18087
1764.71052	0.18494
1762.78187	0.18879
1760.85322	0.19266
1758.92458	0.19700
1756.99593	0.20232
1755.06729	0.20892
1753.13864	0.21683
1751.21000	0.22579
1749.28135	0.23537
1747.35271	0.24506
1745.42406	0.25443
1743.49542	0.26324
1741.56677	0.27149
1739.63813	0.27940
1737.70948	0.28729
1735.78084	0.29545
1733.85219	0.30408
1731.92354	0.31320
1729.99490	0.32271
1728.06625	0.33245
1726.13761	0.34232
1724.20896	0.35230
1722.28032	0.36244
1720.35167	0.37281
1718.42303	0.38354
1716.49438	0.39470
1714.56574	0.40638
1712.63709	0.41863
1710.70845	0.43153
1708.77980	0.44522
1706.85115	0.45997
1704.92251	0.47617
1702.99386	0.49427
1701.06522	0.51466
1699.13657	0.53746
1697.20793	0.56247
1695.27928	0.58916
1693.35064	0.61686
1691.42199	0.64503
1689.49335	0.67339
1687.56470	0.70187
1685.63606	0.73051
1683.70741	0.75929
1681.77876	0.78806
1679.85012	0.81659
1677.92147	0.84481
1675.99283	0.87279
1674.06418	0.90072
1672.13554	0.92874
1670.20689	0.95676
1668.27825	0.98449
1666.34960	1.01142
1664.42096	1.03698
1662.49231	1.06069
1660.56367	1.08222
1658.63502	1.10136
1656.70637	1.11799
1654.77773	1.13215
1652.84908	1.14399
1650.92044	1.15367
1648.99179	1.16135
1647.06315	1.16714
1645.13450	1.17114
1643.20586	1.17344
1641.27721	1.17414
1639.34857	1.17342
1637.41992	1.17144
1635.49128	1.16821
1633.56263	1.16358
1631.63399	1.15729
1629.70534	1.14917
1627.77669	1.13928
1625.84805	1.12802
1623.91940	1.11611
1621.99076	1.10437
1620.06211	1.09356
1618.13347	1.08422
1616.20482	1.07659
1614.27618	1.07070
1612.34753	1.06642
1610.41889	1.06352
1608.49024	1.06168
1606.56160	1.06046
1604.63295	1.05926
1602.70430	1.05738
1600.77566	1.05409
1598.84701	1.04882
1596.91837	1.04127
1594.98972	1.03146
1593.06108	1.01971
1591.13243	1.00655
1589.20379	0.99247
1587.27514	0.97790
1585.34650	0.96313
1583.41785	0.94839
1581.48921	0.93388
1579.56056	0.91987
1577.63191	0.90662
1575.70327	0.89434
1573.77462	0.88302
1571.84598	0.87239
1569.91733	0.86196
1567.98869	0.85118
1566.06004	0.83975
1564.13140	0.82768
1562.20275	0.81539
1560.27411	0.80341
1558.34546	0.79213
1556.41682	0.78150
1554.48817	0.77097
1552.55952	0.75974
1550.63088	0.74707
1548.70223	0.73263
1546.77359	0.71658
1544.84494	0.69955
1542.91630	0.68239
1540.98765	0.66590
1539.05901	0.65073
1537.13036	0.63723
1535.20172	0.62557
1533.27307	0.61574
1531.34443	0.60768
1529.41578	0.60125
1527.48713	0.59627
1525.55849	0.59247
1523.62984	0.58942
1521.70120	0.58644
1519.77255	0.58268
1517.84391	0.57716
1515.91526	0.56908
1513.98662	0.55804
1512.05797	0.54423
1510.12933	0.52836
1508.20068	0.51136
1506.27204	0.49418
1504.34339	0.47746
1502.41475	0.46153
1500.48610	0.44649
1498.55745	0.43241
1496.62881	0.41946
1494.70016	0.40793
1492.77152	0.39807
1490.84287	0.39006
1488.91423	0.38394
1486.98558	0.37966
1485.05694	0.37721
1483.12829	0.37680
1481.19965	0.37886
1479.27100	0.38401
1477.34236	0.39278
1475.41371	0.40526
1473.48506	0.42089
1471.55642	0.43838
1469.62777	0.45598
1467.69913	0.47190
1465.77048	0.48487
1463.84184	0.49441
1461.91319	0.50079
1459.98455	0.50472
1458.05590	0.50695
1456.12726	0.50793
1454.19861	0.50773
1452.26997	0.50625
1450.34132	0.50344
1448.41267	0.49954
1446.48403	0.49516
1444.55538	0.49116
1442.62674	0.48852
1440.69809	0.48810
1438.76945	0.49054
1436.84080	0.49616
1434.91216	0.50490
1432.98351	0.51640
1431.05487	0.53003
1429.12622	0.54508
1427.19758	0.56087
1425.26893	0.57689
1423.34028	0.59280
1421.41164	0.60846
1419.48299	0.62379
1417.55435	0.63867
1415.62570	0.65280
1413.69706	0.66582
1411.76841	0.67730
1409.83977	0.68695
1407.91112	0.69469
1405.98248	0.70066
1404.05383	0.70521
1402.12519	0.70862
1400.19654	0.71099
1398.26789	0.71223
1396.33925	0.71208
1394.41060	0.71037
1392.48196	0.70713
1390.55331	0.70270
1388.62467	0.69759
1386.69602	0.69225
1384.76738	0.68694
1382.83873	0.68162
1380.91009	0.67610
1378.98144	0.67017
1377.05280	0.66376
1375.12415	0.65699
1373.19551	0.65000
1371.26686	0.64292
1369.33821	0.63570
1367.40957	0.62820
1365.48092	0.62028
1363.55228	0.61198
1361.62363	0.60358
1359.69499	0.59551
1357.76634	0.58814
1355.83770	0.58163
1353.90905	0.57578
1351.98041	0.57011
1350.05176	0.56405
1348.12312	0.55724
1346.19447	0.54967
1344.26582	0.54172
1342.33718	0.53395
1340.40853	0.52689
1338.47989	0.52087
1336.55124	0.51594
1334.62260	0.51190
1332.69395	0.50841
1330.76531	0.50516
1328.83666	0.50193
1326.90802	0.49862
1324.97937	0.49523
1323.05073	0.49182
1321.12208	0.48842
1319.19343	0.48500
1317.26479	0.48153
1315.33614	0.47797
1313.40750	0.47440
1311.47885	0.47091
1309.55021	0.46769
1307.62156	0.46492
1305.69292	0.46281
1303.76427	0.46144
1301.83563	0.46084
1299.90698	0.46090
1297.97834	0.46149
1296.04969	0.46248
1294.12104	0.46383
1292.19240	0.46563
1290.26375	0.46801
1288.33511	0.47102
1286.40646	0.47459
1284.47782	0.47856
1282.54917	0.48273
1280.62053	0.48698
1278.69188	0.49131
1276.76324	0.49580
1274.83459	0.50045
1272.90595	0.50516
1270.97730	0.50971
1269.04866	0.51381
1267.12001	0.51721
1265.19136	0.51977
1263.26272	0.52144
1261.33407	0.52229
1259.40543	0.52241
1257.47678	0.52191
1255.54814	0.52087
1253.61949	0.51931
1251.69085	0.51729
1249.76220	0.51485
1247.83356	0.51209
1245.90491	0.50909
1243.97627	0.50598
1242.04762	0.50291
1240.11897	0.50003
1238.19033	0.49747
1236.26168	0.49532
1234.33304	0.49362
1232.40439	0.49228
1230.47575	0.49108
1228.54710	0.48970
1226.61846	0.48780
1224.68981	0.48510
1222.76117	0.48152
1220.83252	0.47724
1218.90388	0.47262
1216.97523	0.46813
1215.04658	0.46414
1213.11794	0.46088
1211.18929	0.45825
1209.26065	0.45594
1207.33200	0.45361
1205.40336	0.45121
1203.47471	0.44902
1201.54607	0.44759
1199.61742	0.44748
1197.68878	0.44911
1195.76013	0.45270
1193.83149	0.45829
1191.90284	0.46594
1189.97419	0.47580
1188.04555	0.48807
1186.11690	0.50284
1184.18826	0.52002
1182.25961	0.53941
1180.33097	0.56088
1178.40232	0.58446
1176.47368	0.61021
1174.54503	0.63805
1172.61639	0.66759
1170.68774	0.69828
1168.75910	0.72961
1166.83045	0.76130
1164.90180	0.79324
1162.97316	0.82547
1161.04451	0.85789
1159.11587	0.89011
1157.18722	0.92147
1155.25858	0.95144
1153.32993	0.98000
1151.40129	1.00769
1149.47264	1.03539
1147.54400	1.06408
1145.61535	1.09455
1143.68671	1.12723
1141.75806	1.16219
1139.82942	1.19935
1137.90077	1.23855
1135.97212	1.27945
1134.04348	1.32141
1132.11483	1.36347
1130.18619	1.40448
1128.25754	1.44329
1126.32890	1.47917
1124.40025	1.51194
1122.47161	1.54192
1120.54296	1.56951
1118.61432	1.59509
1116.68567	1.61893
1114.75703	1.64121
1112.82838	1.66211
1110.89973	1.68188
1108.97109	1.70087
1107.04244	1.71939
1105.11380	1.73749
1103.18515	1.75509
1101.25651	1.77223
1099.32786	1.78914
1097.39922	1.80618
1095.47057	1.82365
1093.54193	1.84158
1091.61328	1.85954
1089.68464	1.87644
1087.75599	1.89082
1085.82734	1.90128
1083.89870	1.90685
1081.97005	1.90711
1080.04141	1.90227
1078.11276	1.89297
1076.18412	1.87983
1074.25547	1.86318
1072.32683	1.84306
1070.39818	1.81946
1068.46954	1.79246
1066.54089	1.76234
1064.61225	1.72973
1062.68360	1.69552
1060.75495	1.66047
1058.82631	1.62498
1056.89766	1.58915
1054.96902	1.55293
1053.04037	1.51625
1051.11173	1.47925
1049.18308	1.44244
1047.25444	1.40664
1045.32579	1.37257
1043.39715	1.34061
1041.46850	1.31074
1039.53986	1.28253
1037.61121	1.25521
1035.68256	1.22808
1033.75392	1.20075
1031.82527	1.17318
1029.89663	1.14553
1027.96798	1.11801
1026.03934	1.09088
1024.11069	1.06435
1022.18205	1.03858
1020.25340	1.01373
1018.32476	0.99000
1016.39611	0.96766
1014.46747	0.94694
1012.53882	0.92790
1010.61018	0.91075
1008.68153	0.89605
1006.75288	0.88455
1004.82424	0.87690
1002.89559	0.87349
1000.96695	0.87429
999.03830	0.87862
997.10966	0.88517
995.18101	0.89232
993.25237	0.89850
991.32372	0.90226
989.39508	0.90236
987.46643	0.89782
985.53779	0.88823
983.60914	0.87377
981.68049	0.85515
979.75185	0.83321
977.82320	0.80857
975.89456	0.78142
973.96591	0.75151
972.03727	0.71874
970.10862	0.68374
968.17998	0.64809
966.25133	0.61405
964.32269	0.58379
962.39404	0.55854
960.46540	0.53817
958.53675	0.52149
956.60810	0.50697
954.67946	0.49330
952.75081	0.47985
950.82217	0.46684
948.89352	0.45487
946.96488	0.44429
945.03623	0.43507
943.10759	0.42709
941.17894	0.42021
939.25030	0.41423
937.32165	0.40904
935.39301	0.40452
933.46436	0.40032
931.53571	0.39591
929.60707	0.39099
927.67842	0.38577
925.74978	0.38090
923.82113	0.37717
921.89249	0.37500
919.96384	0.37417
918.03520	0.37395
916.10655	0.37356
914.17791	0.37246
912.24926	0.37048
910.32062	0.36807
908.39197	0.36620
906.46333	0.36575
904.53468	0.36721
902.60603	0.37071
900.67739	0.37594
898.74874	0.38198
896.82010	0.38759
894.89145	0.39218
892.96281	0.39613
891.03416	0.40023
889.10552	0.40514
887.17687	0.41118
885.24823	0.41818
883.31958	0.42534
881.39094	0.43181
879.46229	0.43748
877.53364	0.44298
875.60500	0.44902
873.67635	0.45578
871.74771	0.46276
869.81906	0.46906
867.89042	0.47369
865.96177	0.47598
864.03313	0.47594
862.10448	0.47430
860.17584	0.47222
858.24719	0.47067
856.31855	0.47000
854.38990	0.46992
852.46125	0.46979
850.53261	0.46882
848.60396	0.46625
846.67532	0.46180
844.74667	0.45588
842.81803	0.44936
840.88938	0.44297
838.96074	0.43711
837.03209	0.43172
835.10345	0.42639
833.17480	0.42050
831.24616	0.41376
829.31751	0.40645
827.38886	0.39932
825.46022	0.39319
823.53157	0.38886
821.60293	0.38685
819.67428	0.38731
817.74564	0.38998
815.81699	0.39412
813.88835	0.39845
811.95970	0.40136
810.03106	0.40159
808.10241	0.39892
806.17377	0.39418
804.24512	0.38884
802.31647	0.38445
800.38783	0.38226
798.45918	0.38275
796.53054	0.38561
794.60189	0.39004
792.67325	0.39499
790.74460	0.39926
788.81596	0.40162
786.88731	0.40143
784.95867	0.39904
783.03002	0.39565
781.10138	0.39273
779.17273	0.39150
777.24409	0.39256
775.31544	0.39558
773.38679	0.39942
771.45815	0.40274
769.52950	0.40464
767.60086	0.40472
765.67221	0.40313
763.74357	0.40085
761.81492	0.39938
759.88628	0.39985
757.95763	0.40256
756.02899	0.40711
754.10034	0.41265
752.17170	0.41814
750.24305	0.42288
748.31440	0.42683
746.38576	0.43010
744.45711	0.43245
742.52847	0.43337
740.59982	0.43245
738.67118	0.42978
736.74253	0.42641
734.81389	0.42420
732.88524	0.42490
730.95660	0.42908
729.02795	0.43588
727.09931	0.44356
725.17066	0.45030
723.24201	0.45502
721.31337	0.45795
719.38472	0.46017
717.45608	0.46273
715.52743	0.46599
713.59879	0.46959
711.67014	0.47294
709.74150	0.47565
707.81285	0.47774
705.88421	0.47949
703.95556	0.48114
702.02692	0.48279
700.09827	0.48448
698.16962	0.48627
696.24098	0.48825
694.31233	0.49052
692.38369	0.49305
690.45504	0.49568
688.52640	0.49834
686.59775	0.50113
684.66911	0.50426
682.74046	0.50780
680.81182	0.51170
678.88317	0.51585
676.95453	0.52024
675.02588	0.52494
673.09723	0.53015
671.16859	0.53595
669.23994	0.54195
667.31130	0.54742
665.38265	0.55182
663.45401	0.55503
661.52536	0.55714
659.59672	0.55819
657.66807	0.55813
655.73943	0.55686
653.81078	0.55444
651.88214	0.55138
649.95349	0.54880
648.02485	0.54802
646.09620	0.54989
644.16755	0.55448
642.23891	0.56126
640.31026	0.56950
638.38162	0.57860
636.45297	0.58832
634.52433	0.59846
632.59568	0.60851
630.66704	0.61778
628.73839	0.62632
626.80975	0.63593
624.88110	0.64995
622.95246	0.67149
621.02381	0.70130
619.09516	0.73639
617.16652	0.76953
615.23787	0.79070
613.30923	0.79118
611.38058	0.76801
609.45194	0.72554
607.52329	0.67340
605.59465	0.62344
603.66600	0.58647
601.73736	0.56855
599.80871	0.56911
597.88007	0.58282
595.95142	0.60289
594.02277	0.62322
592.09413	0.63935
590.16548	0.64924
588.23684	0.65338
586.30819	0.65377
584.37955	0.65278
582.45090	0.65272
580.52226	0.65532
578.59361	0.66099
576.66497	0.66895
574.73632	0.67805
572.80768	0.68761
570.87903	0.69772
568.95038	0.70908
567.02174	0.72248
565.09309	0.73810
563.16445	0.75527
561.23580	0.77297
559.30716	0.79037
557.37851	0.80681
555.44987	0.82156
553.52122	0.83405
551.59258	0.84429
549.66393	0.85295
547.73529	0.86122
545.80664	0.87045
543.87800	0.88140
541.94935	0.89345
540.02070	0.90470
538.09206	0.91290
536.16341	0.91634
534.23477	0.91421
532.30612	0.90637
530.37748	0.89298
528.44883	0.87427
526.52019	0.85064
524.59154	0.82324
522.66290	0.79420
520.73425	0.76622
518.80561	0.74165
516.87696	0.72160
514.94831	0.70568
513.01967	0.69216
511.09102	0.67884
509.16238	0.66405
507.23373	0.64729
505.30509	0.62909
503.37644	0.61045
501.44780	0.59244
499.51915	0.57574
497.59051	0.56042
495.66186	0.54607
493.73322	0.53237
491.80457	0.51948
489.87592	0.50793
487.94728	0.49834
486.01863	0.49111
484.08999	0.48614
482.16134	0.48277
480.23270	0.48007
478.30405	0.47730
476.37541	0.47414
474.44676	0.47064
472.51812	0.46703
470.58947	0.46351
468.66083	0.46000
466.73218	0.45614
464.80353	0.45153
462.87489	0.44590
460.94624	0.43948
459.01760	0.43312
457.08895	0.42803
455.16031	0.42506
453.23166	0.42410
451.30302	0.42397
449.37437	0.42284
447.44573	0.41914
445.51708	0.41236
443.58844	0.40341
441.65979	0.39412
439.73114	0.38614
437.80250	0.38017
435.87385	0.37577
433.94521	0.37175
432.01656	0.36695
430.08792	0.36087
428.15927	0.35375
426.23063	0.34632
424.30198	0.33934
422.37334	0.33314
420.44469	0.32749
418.51605	0.32180
416.58740	0.31558
414.65876	0.30875
412.73011	0.30157
410.80146	0.29450
408.87282	0.28802
406.94417	0.28236
405.01553	0.27724
403.08688	0.27205
401.15824	0.26604
399.22959	0.25868
397.30095	0.24970
395.37230	0.23920
393.44366	0.22773
391.51501	0.21634
389.58637	0.20625
387.65772	0.19839
385.72907	0.19298
383.80043	0.18940
381.87178	0.18645
379.94314	0.18305
378.01449	0.17884
376.08585	0.17441
374.15720	0.17098
372.22856	0.16961
370.29991	0.17033
368.37127	0.17192
366.44262	0.17244
364.51398	0.17027
362.58533	0.16475
360.65668	0.15630
358.72804	0.14626
356.79939	0.13650
354.87075	0.12864
352.94210	0.12342
351.01346	0.12055
349.08481	0.11903
347.15617	0.11740
345.22752	0.11428
343.29888	0.10901
341.37023	0.10210
339.44159	0.09485
337.51294	0.08867
335.58429	0.08445
333.65565	0.08233
331.72700	0.08170
329.79836	0.08147
327.86971	0.08056
325.94107	0.07829
324.01242	0.07460
322.08378	0.07024
320.15513	0.06648
318.22649	0.06464
316.29784	0.06537
314.36920	0.06809
312.44055	0.07115
310.51190	0.07245
308.58326	0.07039
306.65461	0.06531
304.72597	0.05911
302.79732	0.05417
300.86868	0.05213
298.94003	0.05308
297.01139	0.05578
295.08274	0.05864
293.15410	0.06073
291.22545	0.06209
289.29681	0.06335
287.36816	0.06508
285.43952	0.06747
283.51087	0.07059
281.58222	0.07463
279.65358	0.07989
277.72493	0.08636
275.79629	0.09351
273.86764	0.10037
271.93900	0.10597
270.01035	0.10995
268.08171	0.11281
266.15306	0.11575
264.22442	0.12015
262.29577	0.12698
260.36713	0.13632
258.43848	0.14751
256.50983	0.15968
254.58119	0.17226
252.65254	0.18521
250.72390	0.19897
248.79525	0.21404
246.86661	0.23029
244.93796	0.24651
243.00932	0.26067
241.08067	0.27088
239.15203	0.27629
237.22338	0.27735
235.29474	0.27539
233.36609	0.27195
231.43744	0.26852
229.50880	0.26684
227.58015	0.26900
225.65151	0.27696
223.72286	0.29165
221.79422	0.31227
219.86557	0.33623
217.93693	0.35966
216.00828	0.37854
214.07964	0.39003
212.15099	0.39320
210.22235	0.38882
208.29370	0.37878
206.36505	0.36589
204.43641	0.35406
202.50776	0.34768
200.57912	0.35008
198.65047	0.36221
196.72183	0.38247
194.79318	0.40714
192.86454	0.43124
190.93589	0.45016
189.00725	0.46127
187.07860	0.46448
185.14996	0.46129
183.22131	0.45372
181.29267	0.44406
179.36402	0.43510
177.43537	0.43007
175.50673	0.43221
173.57808	0.44453
171.64944	0.46931
169.72079	0.50733
167.79215	0.55761
165.86350	0.61797
163.93486	0.68633
162.00621	0.77326
160.07757	0.86254
158.14892	0.94187
156.22028	1.00304
154.29163	1.00304
152.36298	1.00304
150.43434	1.00304
148.50569	1.00304
